'Elapsed time','MLII','V1',
'hh:mm:ss.mmm','mV','mV',
'12:30.000',-0.365,0.175,11111111100010000110000
'12:30.003',-0.37,0.185,11111111100001101100000
'12:30.006',-0.345,0.2,11111111100011101110000
'12:30.008',-0.35,0.18,11111111100011010100000
'12:30.011',-0.375,0.19,11111111100001010000000
'12:30.014',-0.37,0.175,11111111100001101100000
'12:30.017',-0.39,0.185,11111111100000000010000
'12:30.019',-0.38,0.195,11111111100000110110000
'12:30.022',-0.37,0.195,11111111100001101100000
'12:30.025',-0.375,0.195,11111111100001010000000
'12:30.028',-0.375,0.17,11111111100001010000000
'12:30.031',-0.4,0.16,11111111011111001110000
'12:30.033',-0.42,0.175,11111111011101100100000
'12:30.036',-0.42,0.185,11111111011101100100000
'12:30.039',-0.42,0.18,11111111011101100100000
'12:30.042',-0.415,0.175,11111111011110000000000
'12:30.044',-0.435,0.175,11111111011100010110000
'12:30.047',-0.44,0.17,11111111011011111100000
'12:30.050',-0.45,0.185,11111111011011001000000
'12:30.053',-0.45,0.185,11111111011011001000000
'12:30.056',-0.46,0.215,11111111011010010100000
'12:30.058',-0.46,0.2,11111111011010010100000
'12:30.061',-0.475,0.19,11111111011001000100000
'12:30.064',-0.49,0.17,11111111010111110110000
'12:30.067',-0.5,0.175,11111111010111000010000
'12:30.069',-0.49,0.175,11111111010111110110000
'12:30.072',-0.495,0.175,11111111010111011100000
'12:30.075',-0.5,0.185,11111111010111000010000
'12:30.078',-0.51,0.175,11111111010110001110000
'12:30.081',-0.515,0.17,11111111010101110010000
'12:30.083',-0.52,0.19,11111111010101011000000
'12:30.086',-0.51,0.2,11111111010110001110000
'12:30.089',-0.51,0.205,11111111010110001110000
'12:30.092',-0.5,0.19,11111111010111000010000
'12:30.094',-0.515,0.175,11111111010101110010000
'12:30.097',-0.53,0.155,11111111010100100100000
'12:30.100',-0.535,0.155,11111111010100001010000
'12:30.103',-0.52,0.175,11111111010101011000000
'12:30.106',-0.5,0.19,11111111010111000010000
'12:30.108',-0.495,0.18,11111111010111011100000
'12:30.111',-0.515,0.155,11111111010101110010000
'12:30.114',-0.535,0.145,11111111010100001010000
'12:30.117',-0.535,0.145,11111111010100001010000
'12:30.119',-0.49,0.15,11111111010111110110000
'12:30.122',-0.48,0.165,11111111011000101010000
'12:30.125',-0.475,0.17,11111111011001000100000
'12:30.128',-0.475,0.16,11111111011001000100000
'12:30.131',-0.475,0.14,11111111011001000100000
'12:30.133',-0.475,0.135,11111111011001000100000
'12:30.136',-0.45,0.15,11111111011011001000000
'12:30.139',-0.46,0.155,11111111011010010100000
'12:30.142',-0.435,0.145,11111111011100010110000
'12:30.144',-0.435,0.125,11111111011100010110000
'12:30.147',-0.445,0.135,11111111011011100010000
'12:30.150',-0.455,0.135,11111111011010101110000
'12:30.153',-0.44,0.145,11111111011011111100000
'12:30.156',-0.41,0.165,11111111011110011010000
'12:30.158',-0.395,0.145,11111111011111101000000
'12:30.161',-0.39,0.125,11111111100000000010000
'12:30.164',-0.4,0.115,11111111011111001110000
'12:30.167',-0.385,0.095,11111111100000011100000
'12:30.169',-0.39,0.115,11111111100000000010000
'12:30.172',-0.375,0.14,11111111100001010000000
'12:30.175',-0.365,0.14,11111111100010000110000
'12:30.178',-0.355,0.125,11111111100010111010000
'12:30.181',-0.355,0.12,11111111100010111010000
'12:30.183',-0.355,0.115,11111111100010111010000
'12:30.186',-0.345,0.135,11111111100011101110000
'12:30.189',-0.325,0.14,11111111100101011000000
'12:30.192',-0.32,0.14,11111111100101110010000
'12:30.194',-0.325,0.11,11111111100101011000000
'12:30.197',-0.34,0.1,11111111100100001000000
'12:30.200',-0.325,0.115,11111111100101011000000
'12:30.203',-0.31,0.12,11111111100110100110000
'12:30.206',-0.295,0.145,11111111100111110100000
'12:30.208',-0.29,0.14,11111111101000001110000
'12:30.211',-0.295,0.115,11111111100111110100000
'12:30.214',-0.3,0.115,11111111100111011010000
'12:30.217',-0.3,0.115,11111111100111011010000
'12:30.219',-0.285,0.135,11111111101000101000000
'12:30.222',-0.265,0.135,11111111101010010010000
'12:30.225',-0.26,0.13,11111111101010101100000
'12:30.228',-0.26,0.12,11111111101010101100000
'12:30.231',-0.255,0.11,11111111101011000110000
'12:30.233',-0.27,0.12,11111111101001111000000
'12:30.236',-0.25,0.12,11111111101011100000000
'12:30.239',-0.245,0.13,11111111101011111010000
'12:30.242',-0.23,0.125,11111111101101001010000
'12:30.244',-0.24,0.13,11111111101100010100000
'12:30.247',-0.24,0.12,11111111101100010100000
'12:30.250',-0.255,0.115,11111111101011000110000
'12:30.253',-0.235,0.12,11111111101100101110000
'12:30.256',-0.235,0.13,11111111101100101110000
'12:30.258',-0.205,0.12,11111111101111001100000
'12:30.261',-0.21,0.11,11111111101110110010000
'12:30.264',-0.225,0.095,11111111101101100100000
'12:30.267',-0.235,0.105,11111111101100101110000
'12:30.269',-0.22,0.12,11111111101101111110000
'12:30.272',-0.205,0.13,11111111101111001100000
'12:30.275',-0.19,0.105,11111111110000011010000
'12:30.278',-0.195,0.115,11111111110000000000000
'12:30.281',-0.205,0.09,11111111101111001100000
'12:30.283',-0.205,0.1,11111111101111001100000
'12:30.286',-0.205,0.115,11111111101111001100000
'12:30.289',-0.2,0.125,11111111101111100110000
'12:30.292',-0.18,0.12,11111111110001010000000
'12:30.294',-0.18,0.11,11111111110001010000000
'12:30.297',-0.195,0.095,11111111110000000000000
'12:30.300',-0.19,0.095,11111111110000011010000
'12:30.303',-0.185,0.11,11111111110000110110000
'12:30.306',-0.17,0.12,11111111110010000100000
'12:30.308',-0.16,0.115,11111111110010111000000
'12:30.311',-0.17,0.115,11111111110010000100000
'12:30.314',-0.185,0.12,11111111110000110110000
'12:30.317',-0.175,0.125,11111111110001101010000
'12:30.319',-0.165,0.115,11111111110010011110000
'12:30.322',-0.15,0.125,11111111110011101100000
'12:30.325',-0.14,0.125,11111111110100100000000
'12:30.328',-0.15,0.115,11111111110011101100000
'12:30.331',-0.16,0.1,11111111110010111000000
'12:30.333',-0.165,0.11,11111111110010011110000
'12:30.336',-0.155,0.125,11111111110011010010000
'12:30.339',-0.155,0.13,11111111110011010010000
'12:30.342',-0.145,0.135,11111111110100000110000
'12:30.344',-0.14,0.1,11111111110100100000000
'12:30.347',-0.15,0.11,11111111110011101100000
'12:30.350',-0.16,0.105,11111111110010111000000
'12:30.353',-0.16,0.115,11111111110010111000000
'12:30.356',-0.16,0.13,11111111110010111000000
'12:30.358',-0.16,0.13,11111111110010111000000
'12:30.361',-0.145,0.125,11111111110100000110000
'12:30.364',-0.165,0.105,11111111110010011110000
'12:30.367',-0.16,0.11,11111111110010111000000
'12:30.369',-0.14,0.125,11111111110100100000000
'12:30.372',-0.125,0.135,11111111110101110000000
'12:30.375',-0.12,0.13,11111111110110001010000
'12:30.378',-0.13,0.125,11111111110101010110000
'12:30.381',-0.145,0.115,11111111110100000110000
'12:30.383',-0.15,0.12,11111111110011101100000
'12:30.386',-0.14,0.13,11111111110100100000000
'12:30.389',-0.13,0.135,11111111110101010110000
'12:30.392',-0.115,0.125,11111111110110100100000
'12:30.394',-0.13,0.12,11111111110101010110000
'12:30.397',-0.145,0.105,11111111110100000110000
'12:30.400',-0.15,0.105,11111111110011101100000
'12:30.403',-0.13,0.13,11111111110101010110000
'12:30.406',-0.125,0.15,11111111110101110000000
'12:30.408',-0.1,0.15,11111111110111110010000
'12:30.411',-0.115,0.13,11111111110110100100000
'12:30.414',-0.13,0.11,11111111110101010110000
'12:30.417',-0.13,0.13,11111111110101010110000
'12:30.419',-0.14,0.135,11111111110100100000000
'12:30.422',-0.12,0.15,11111111110110001010000
'12:30.425',-0.1,0.15,11111111110111110010000
'12:30.428',-0.1,0.135,11111111110111110010000
'12:30.431',-0.12,0.125,11111111110110001010000
'12:30.433',-0.125,0.125,11111111110101110000000
'12:30.436',-0.11,0.145,11111111110110111110000
'12:30.439',-0.095,0.14,11111111111000001100000
'12:30.442',-0.1,0.135,11111111110111110010000
'12:30.444',-0.105,0.125,11111111110111011000000
'12:30.447',-0.11,0.12,11111111110110111110000
'12:30.450',-0.11,0.135,11111111110110111110000
'12:30.453',-0.115,0.15,11111111110110100100000
'12:30.456',-0.105,0.165,11111111110111011000000
'12:30.458',-0.095,0.14,11111111111000001100000
'12:30.461',-0.1,0.14,11111111110111110010000
'12:30.464',-0.115,0.125,11111111110110100100000
'12:30.467',-0.115,0.135,11111111110110100100000
'12:30.469',-0.12,0.14,11111111110110001010000
'12:30.472',-0.09,0.145,11111111111000101000000
'12:30.475',-0.105,0.14,11111111110111011000000
'12:30.478',-0.11,0.14,11111111110110111110000
'12:30.481',-0.105,0.115,11111111110111011000000
'12:30.483',-0.11,0.12,11111111110110111110000
'12:30.486',-0.1,0.145,11111111110111110010000
'12:30.489',-0.09,0.16,11111111111000101000000
'12:30.492',-0.08,0.145,11111111111001011100000
'12:30.494',-0.085,0.125,11111111111001000010000
'12:30.497',-0.1,0.115,11111111110111110010000
'12:30.500',-0.1,0.13,11111111110111110010000
'12:30.503',-0.095,0.145,11111111111000001100000
'12:30.506',-0.075,0.16,11111111111001110110000
'12:30.508',-0.085,0.155,11111111111001000010000
'12:30.511',-0.09,0.14,11111111111000101000000
'12:30.514',-0.095,0.135,11111111111000001100000
'12:30.517',-0.1,0.135,11111111110111110010000
'12:30.519',-0.085,0.14,11111111111001000010000
'12:30.522',-0.07,0.16,11111111111010010000000
'12:30.525',-0.075,0.155,11111111111001110110000
'12:30.528',-0.08,0.15,11111111111001011100000
'12:30.531',-0.09,0.13,11111111111000101000000
'12:30.533',-0.1,0.14,11111111110111110010000
'12:30.536',-0.09,0.15,11111111111000101000000
'12:30.539',-0.075,0.155,11111111111001110110000
'12:30.542',-0.095,0.145,11111111111000001100000
'12:30.544',-0.11,0.135,11111111110110111110000
'12:30.547',-0.115,0.135,11111111110110100100000
'12:30.550',-0.1,0.135,11111111110111110010000
'12:30.553',-0.105,0.145,11111111110111011000000
'12:30.556',-0.09,0.145,11111111111000101000000
'12:30.558',-0.085,0.15,11111111111001000010000
'12:30.561',-0.085,0.15,11111111111001000010000
'12:30.564',-0.1,0.12,11111111110111110010000
'12:30.567',-0.105,0.14,11111111110111011000000
'12:30.569',-0.105,0.14,11111111110111011000000
'12:30.572',-0.08,0.16,11111111111001011100000
'12:30.575',-0.085,0.15,11111111111001000010000
'12:30.578',-0.085,0.14,11111111111001000010000
'12:30.581',-0.095,0.13,11111111111000001100000
'12:30.583',-0.1,0.16,11111111110111110010000
'12:30.586',-0.095,0.17,11111111111000001100000
'12:30.589',-0.09,0.165,11111111111000101000000
'12:30.592',-0.08,0.16,11111111111001011100000
'12:30.594',-0.105,0.145,11111111110111011000000
'12:30.597',-0.095,0.135,11111111111000001100000
'12:30.600',-0.095,0.135,11111111111000001100000
'12:30.603',-0.085,0.135,11111111111001000010000
'12:30.606',-0.07,0.165,11111111111010010000000
'12:30.608',-0.06,0.155,11111111111011000100000
'12:30.611',-0.075,0.155,11111111111001110110000
'12:30.614',-0.08,0.15,11111111111001011100000
'12:30.617',-0.09,0.15,11111111111000101000000
'12:30.619',-0.08,0.16,11111111111001011100000
'12:30.622',-0.065,0.175,11111111111010101010000
'12:30.625',-0.065,0.17,11111111111010101010000
'12:30.628',-0.055,0.165,11111111111011011110000
'12:30.631',-0.07,0.175,11111111111010010000000
'12:30.633',-0.08,0.18,11111111111001011100000
'12:30.636',-0.06,0.195,11111111111011000100000
'12:30.639',-0.04,0.22,11111111111100101110000
'12:30.642',-0.02,0.21,11111111111110010110000
'12:30.644',-0.02,0.19,11111111111110010110000
'12:30.647',-0.03,0.16,11111111111101100010000
'12:30.650',-0.035,0.145,11111111111101001000000
'12:30.653',-0.03,0.16,11111111111101100010000
'12:30.656',-0.005,0.18,11111111111111100100000
'12:30.658',0.035,0.165,00000000000010110110000
'12:30.661',0.025,0.145,00000000000010000010000
'12:30.664',0.025,0.13,00000000000010000010000
'12:30.667',0.035,0.115,00000000000010110110000
'12:30.669',0.055,0.105,00000000000100100000000
'12:30.672',0.075,0.09,00000000000110001000000
'12:30.675',0.085,0.075,00000000000110111100000
'12:30.678',0.08,0.075,00000000000110100010000
'12:30.681',0.065,0.08,00000000000101010100000
'12:30.683',0.04,0.08,00000000000011010000000
'12:30.686',0.02,0.1,00000000000001101000000
'12:30.689',0.025,0.12,00000000000010000010000
'12:30.692',0.015,0.145,00000000000001001110000
'12:30.694',-0.005,0.14,11111111111111100100000
'12:30.697',-0.02,0.155,11111111111110010110000
'12:30.700',-0.01,0.155,11111111111111001010000
'12:30.703',-0.01,0.17,11111111111111001010000
'12:30.706',-0.025,0.19,11111111111101111100000
'12:30.708',-0.055,0.18,11111111111011011110000
'12:30.711',-0.07,0.155,11111111111010010000000
'12:30.714',-0.1,0.125,11111111110111110010000
'12:30.717',-0.115,0.135,11111111110110100100000
'12:30.719',-0.135,0.14,11111111110100111100000
'12:30.722',-0.125,0.15,11111111110101110000000
'12:30.725',-0.11,0.155,11111111110110111110000
'12:30.728',-0.12,0.145,11111111110110001010000
'12:30.731',-0.12,0.135,11111111110110001010000
'12:30.733',-0.12,0.14,11111111110110001010000
'12:30.736',-0.11,0.155,11111111110110111110000
'12:30.739',-0.1,0.16,11111111110111110010000
'12:30.742',-0.085,0.17,11111111111001000010000
'12:30.744',-0.105,0.175,11111111110111011000000
'12:30.747',-0.105,0.19,11111111110111011000000
'12:30.750',-0.11,0.245,11111111110110111110000
'12:30.753',-0.09,0.31,11111111111000101000000
'12:30.756',-0.075,0.305,11111111111001110110000
'12:30.758',-0.07,0.255,11111111111010010000000
'12:30.761',-0.07,0.145,11111111111010010000000
'12:30.764',-0.065,0.01,11111111111010101010000
'12:30.767',0,-0.185,00000000000000000000000
'12:30.769',0.145,-0.38,00000000001011111000000
'12:30.772',0.335,-0.55,00000000011011011100000
'12:30.775',0.495,-0.7,00000000101000100010000
'12:30.778',0.655,-0.805,00000000110101101010000
'12:30.781',0.78,-0.815,00000000111111111000000
'12:30.783',0.87,-0.72,00000001000111010000000
'12:30.786',0.865,-0.595,00000001000110110110000
'12:30.789',0.695,-0.435,00000000111000111010000
'12:30.792',0.395,-0.3,00000000100000010110000
'12:30.794',0.135,-0.155,00000000001011000010000
'12:30.797',-0.03,-0.015,11111111111101100010000
'12:30.800',-0.11,0.105,11111111110110111110000
'12:30.803',-0.11,0.215,11111111110110111110000
'12:30.806',-0.085,0.255,11111111111001000010000
'12:30.808',-0.09,0.26,11111111111000101000000
'12:30.811',-0.095,0.245,11111111111000001100000
'12:30.814',-0.115,0.235,11111111110110100100000
'12:30.817',-0.14,0.235,11111111110100100000000
'12:30.819',-0.125,0.265,11111111110101110000000
'12:30.822',-0.115,0.27,11111111110110100100000
'12:30.825',-0.115,0.27,11111111110110100100000
'12:30.828',-0.125,0.245,11111111110101110000000
'12:30.831',-0.12,0.235,11111111110110001010000
'12:30.833',-0.125,0.255,11111111110101110000000
'12:30.836',-0.105,0.255,11111111110111011000000
'12:30.839',-0.11,0.28,11111111110110111110000
'12:30.842',-0.11,0.275,11111111110110111110000
'12:30.844',-0.12,0.255,11111111110110001010000
'12:30.847',-0.135,0.235,11111111110100111100000
'12:30.850',-0.145,0.25,11111111110100000110000
'12:30.853',-0.14,0.25,11111111110100100000000
'12:30.856',-0.14,0.26,11111111110100100000000
'12:30.858',-0.145,0.245,11111111110100000110000
'12:30.861',-0.14,0.25,11111111110100100000000
'12:30.864',-0.14,0.235,11111111110100100000000
'12:30.867',-0.14,0.25,11111111110100100000000
'12:30.869',-0.14,0.27,11111111110100100000000
'12:30.872',-0.125,0.285,11111111110101110000000
'12:30.875',-0.13,0.265,11111111110101010110000
'12:30.878',-0.14,0.255,11111111110100100000000
'12:30.881',-0.14,0.235,11111111110100100000000
'12:30.883',-0.145,0.25,11111111110100000110000
'12:30.886',-0.135,0.27,11111111110100111100000
'12:30.889',-0.125,0.28,11111111110101110000000
'12:30.892',-0.125,0.28,11111111110101110000000
'12:30.894',-0.14,0.26,11111111110100100000000
'12:30.897',-0.14,0.235,11111111110100100000000
'12:30.900',-0.14,0.25,11111111110100100000000
'12:30.903',-0.13,0.265,11111111110101010110000
'12:30.906',-0.11,0.27,11111111110110111110000
'12:30.908',-0.11,0.265,11111111110110111110000
'12:30.911',-0.135,0.26,11111111110100111100000
'12:30.914',-0.145,0.24,11111111110100000110000
'12:30.917',-0.16,0.245,11111111110010111000000
'12:30.919',-0.145,0.27,11111111110100000110000
'12:30.922',-0.13,0.275,11111111110101010110000
'12:30.925',-0.13,0.26,11111111110101010110000
'12:30.928',-0.155,0.24,11111111110011010010000
'12:30.931',-0.16,0.24,11111111110010111000000
'12:30.933',-0.16,0.245,11111111110010111000000
'12:30.936',-0.16,0.255,11111111110010111000000
'12:30.939',-0.145,0.275,11111111110100000110000
'12:30.942',-0.135,0.26,11111111110100111100000
'12:30.944',-0.135,0.24,11111111110100111100000
'12:30.947',-0.145,0.235,11111111110100000110000
'12:30.950',-0.165,0.23,11111111110010011110000
'12:30.953',-0.145,0.245,11111111110100000110000
'12:30.956',-0.15,0.275,11111111110011101100000
'12:30.958',-0.16,0.26,11111111110010111000000
'12:30.961',-0.155,0.245,11111111110011010010000
'12:30.964',-0.17,0.235,11111111110010000100000
'12:30.967',-0.175,0.24,11111111110001101010000
'12:30.969',-0.17,0.245,11111111110010000100000
'12:30.972',-0.165,0.26,11111111110010011110000
'12:30.975',-0.16,0.255,11111111110010111000000
'12:30.978',-0.16,0.24,11111111110010111000000
'12:30.981',-0.18,0.235,11111111110001010000000
'12:30.983',-0.175,0.24,11111111110001101010000
'12:30.986',-0.16,0.245,11111111110010111000000
'12:30.989',-0.155,0.255,11111111110011010010000
'12:30.992',-0.155,0.25,11111111110011010010000
'12:30.994',-0.155,0.24,11111111110011010010000
'12:30.997',-0.17,0.225,11111111110010000100000
'12:31.000',-0.175,0.235,11111111110001101010000
'12:31.003',-0.18,0.235,11111111110001010000000
'12:31.006',-0.155,0.255,11111111110011010010000
'12:31.008',-0.175,0.24,11111111110001101010000
'12:31.011',-0.175,0.215,11111111110001101010000
'12:31.014',-0.175,0.215,11111111110001101010000
'12:31.017',-0.175,0.205,11111111110001101010000
'12:31.019',-0.17,0.23,11111111110010000100000
'12:31.022',-0.155,0.27,11111111110011010010000
'12:31.025',-0.15,0.265,11111111110011101100000
'12:31.028',-0.145,0.25,11111111110100000110000
'12:31.031',-0.17,0.245,11111111110010000100000
'12:31.033',-0.135,0.255,11111111110100111100000
'12:31.036',-0.11,0.27,11111111110110111110000
'12:31.039',-0.1,0.285,11111111110111110010000
'12:31.042',-0.09,0.275,11111111111000101000000
'12:31.044',-0.115,0.245,11111111110110100100000
'12:31.047',-0.125,0.24,11111111110101110000000
'12:31.050',-0.135,0.24,11111111110100111100000
'12:31.053',-0.15,0.245,11111111110011101100000
'12:31.056',-0.165,0.27,11111111110010011110000
'12:31.058',-0.17,0.275,11111111110010000100000
'12:31.061',-0.185,0.265,11111111110000110110000
'12:31.064',-0.19,0.265,11111111110000011010000
'12:31.067',-0.19,0.275,11111111110000011010000
'12:31.069',-0.18,0.31,11111111110001010000000
'12:31.072',-0.155,0.335,11111111110011010010000
'12:31.075',-0.14,0.31,11111111110100100000000
'12:31.078',-0.155,0.265,11111111110011010010000
'12:31.081',-0.195,0.22,11111111110000000000000
'12:31.083',-0.225,0.205,11111111101101100100000
'12:31.086',-0.23,0.215,11111111101101001010000
'12:31.089',-0.225,0.205,11111111101101100100000
'12:31.092',-0.23,0.18,11111111101101001010000
'12:31.094',-0.245,0.18,11111111101011111010000
'12:31.097',-0.25,0.15,11111111101011100000000
'12:31.100',-0.265,0.165,11111111101010010010000
'12:31.103',-0.26,0.16,11111111101010101100000
'12:31.106',-0.24,0.175,11111111101100010100000
'12:31.108',-0.23,0.18,11111111101101001010000
'12:31.111',-0.235,0.155,11111111101100101110000
'12:31.114',-0.245,0.14,11111111101011111010000
'12:31.117',-0.245,0.135,11111111101011111010000
'12:31.119',-0.24,0.155,11111111101100010100000
'12:31.122',-0.235,0.17,11111111101100101110000
'12:31.125',-0.215,0.175,11111111101110011000000
'12:31.128',-0.22,0.155,11111111101101111110000
'12:31.131',-0.23,0.14,11111111101101001010000
'12:31.133',-0.225,0.155,11111111101101100100000
'12:31.136',-0.21,0.17,11111111101110110010000
'12:31.139',-0.195,0.17,11111111110000000000000
'12:31.142',-0.19,0.19,11111111110000011010000
'12:31.144',-0.19,0.175,11111111110000011010000
'12:31.147',-0.205,0.155,11111111101111001100000
'12:31.150',-0.205,0.16,11111111101111001100000
'12:31.153',-0.19,0.175,11111111110000011010000
'12:31.156',-0.18,0.185,11111111110001010000000
'12:31.158',-0.175,0.17,11111111110001101010000
'12:31.161',-0.18,0.16,11111111110001010000000
'12:31.164',-0.205,0.145,11111111101111001100000
'12:31.167',-0.185,0.17,11111111110000110110000
'12:31.169',-0.17,0.18,11111111110010000100000
'12:31.172',-0.17,0.19,11111111110010000100000
'12:31.175',-0.16,0.18,11111111110010111000000
'12:31.178',-0.16,0.17,11111111110010111000000
'12:31.181',-0.16,0.16,11111111110010111000000
'12:31.183',-0.165,0.16,11111111110010011110000
'12:31.186',-0.155,0.19,11111111110011010010000
'12:31.189',-0.135,0.225,11111111110100111100000
'12:31.192',-0.15,0.24,11111111110011101100000
'12:31.194',-0.185,0.215,11111111110000110110000
'12:31.197',-0.24,0.155,11111111101100010100000
'12:31.200',-0.27,0.06,11111111101001111000000
'12:31.203',-0.25,-0.065,11111111101011100000000
'12:31.206',-0.135,-0.215,11111111110100111100000
'12:31.208',0,-0.375,00000000000000000000000
'12:31.211',0.14,-0.54,00000000001011011110000
'12:31.214',0.315,-0.66,00000000011001110010000
'12:31.217',0.565,-0.675,00000000101110010010000
'12:31.219',0.795,-0.585,00000001000001001000000
'12:31.222',0.895,-0.45,00000001001001010100000
'12:31.225',0.8,-0.325,00000001000001100010000
'12:31.228',0.515,-0.18,00000000101010001100000
'12:31.231',0.21,-0.02,00000000010001001100000
'12:31.233',0.02,0.155,00000000000001101000000
'12:31.236',-0.025,0.245,11111111111101111100000
'12:31.239',-0.02,0.29,11111111111110010110000
'12:31.242',-0.01,0.275,11111111111111001010000
'12:31.244',-0.045,0.255,11111111111100010100000
'12:31.247',-0.09,0.235,11111111111000101000000
'12:31.250',-0.12,0.24,11111111110110001010000
'12:31.253',-0.115,0.25,11111111110110100100000
'12:31.256',-0.125,0.255,11111111110101110000000
'12:31.258',-0.12,0.25,11111111110110001010000
'12:31.261',-0.135,0.225,11111111110100111100000
'12:31.264',-0.16,0.22,11111111110010111000000
'12:31.267',-0.175,0.215,11111111110001101010000
'12:31.269',-0.16,0.23,11111111110010111000000
'12:31.272',-0.16,0.245,11111111110010111000000
'12:31.275',-0.155,0.23,11111111110011010010000
'12:31.278',-0.155,0.225,11111111110011010010000
'12:31.281',-0.165,0.205,11111111110010011110000
'12:31.283',-0.165,0.21,11111111110010011110000
'12:31.286',-0.17,0.215,11111111110010000100000
'12:31.289',-0.155,0.225,11111111110011010010000
'12:31.292',-0.16,0.21,11111111110010111000000
'12:31.294',-0.18,0.215,11111111110001010000000
'12:31.297',-0.185,0.21,11111111110000110110000
'12:31.300',-0.18,0.21,11111111110001010000000
'12:31.303',-0.175,0.225,11111111110001101010000
'12:31.306',-0.185,0.235,11111111110000110110000
'12:31.308',-0.165,0.22,11111111110010011110000
'12:31.311',-0.175,0.22,11111111110001101010000
'12:31.314',-0.185,0.22,11111111110000110110000
'12:31.317',-0.195,0.22,11111111110000000000000
'12:31.319',-0.18,0.225,11111111110001010000000
'12:31.322',-0.16,0.24,11111111110010111000000
'12:31.325',-0.17,0.225,11111111110010000100000
'12:31.328',-0.19,0.215,11111111110000011010000
'12:31.331',-0.205,0.21,11111111101111001100000
'12:31.333',-0.2,0.215,11111111101111100110000
'12:31.336',-0.195,0.23,11111111110000000000000
'12:31.339',-0.19,0.245,11111111110000011010000
'12:31.342',-0.2,0.23,11111111101111100110000
'12:31.344',-0.205,0.21,11111111101111001100000
'12:31.347',-0.215,0.2,11111111101110011000000
'12:31.350',-0.21,0.215,11111111101110110010000
'12:31.353',-0.21,0.235,11111111101110110010000
'12:31.356',-0.205,0.25,11111111101111001100000
'12:31.358',-0.19,0.24,11111111110000011010000
'12:31.361',-0.195,0.225,11111111110000000000000
'12:31.364',-0.215,0.215,11111111101110011000000
'12:31.367',-0.22,0.225,11111111101101111110000
'12:31.369',-0.22,0.24,11111111101101111110000
'12:31.372',-0.2,0.255,11111111101111100110000
'12:31.375',-0.2,0.23,11111111101111100110000
'12:31.378',-0.22,0.23,11111111101101111110000
'12:31.381',-0.225,0.205,11111111101101100100000
'12:31.383',-0.235,0.215,11111111101100101110000
'12:31.386',-0.215,0.23,11111111101110011000000
'12:31.389',-0.21,0.235,11111111101110110010000
'12:31.392',-0.21,0.225,11111111101110110010000
'12:31.394',-0.215,0.22,11111111101110011000000
'12:31.397',-0.24,0.22,11111111101100010100000
'12:31.400',-0.24,0.215,11111111101100010100000
'12:31.403',-0.23,0.24,11111111101101001010000
'12:31.406',-0.215,0.235,11111111101110011000000
'12:31.408',-0.195,0.235,11111111110000000000000
'12:31.411',-0.215,0.215,11111111101110011000000
'12:31.414',-0.235,0.195,11111111101100101110000
'12:31.417',-0.26,0.2,11111111101010101100000
'12:31.419',-0.255,0.215,11111111101011000110000
'12:31.422',-0.245,0.22,11111111101011111010000
'12:31.425',-0.255,0.225,11111111101011000110000
'12:31.428',-0.26,0.205,11111111101010101100000
'12:31.431',-0.28,0.19,11111111101001000010000
'12:31.433',-0.295,0.2,11111111100111110100000
'12:31.436',-0.295,0.215,11111111100111110100000
'12:31.439',-0.27,0.23,11111111101001111000000
'12:31.442',-0.275,0.22,11111111101001011110000
'12:31.444',-0.285,0.21,11111111101000101000000
'12:31.447',-0.3,0.195,11111111100111011010000
'12:31.450',-0.3,0.2,11111111100111011010000
'12:31.453',-0.3,0.21,11111111100111011010000
'12:31.456',-0.28,0.23,11111111101001000010000
'12:31.458',-0.255,0.21,11111111101011000110000
'12:31.461',-0.255,0.205,11111111101011000110000
'12:31.464',-0.275,0.185,11111111101001011110000
'12:31.467',-0.26,0.195,11111111101010101100000
'12:31.469',-0.26,0.2,11111111101010101100000
'12:31.472',-0.24,0.21,11111111101100010100000
'12:31.475',-0.24,0.205,11111111101100010100000
'12:31.478',-0.23,0.185,11111111101101001010000
'12:31.481',-0.23,0.18,11111111101101001010000
'12:31.483',-0.22,0.19,11111111101101111110000
'12:31.486',-0.215,0.2,11111111101110011000000
'12:31.489',-0.195,0.21,11111111110000000000000
'12:31.492',-0.17,0.195,11111111110010000100000
'12:31.494',-0.18,0.175,11111111110001010000000
'12:31.497',-0.195,0.155,11111111110000000000000
'12:31.500',-0.215,0.155,11111111101110011000000
'12:31.503',-0.2,0.175,11111111101111100110000
'12:31.506',-0.19,0.185,11111111110000011010000
'12:31.508',-0.175,0.18,11111111110001101010000
'12:31.511',-0.185,0.17,11111111110000110110000
'12:31.514',-0.185,0.145,11111111110000110110000
'12:31.517',-0.175,0.15,11111111110001101010000
'12:31.519',-0.17,0.17,11111111110010000100000
'12:31.522',-0.15,0.18,11111111110011101100000
'12:31.525',-0.14,0.175,11111111110100100000000
'12:31.528',-0.165,0.175,11111111110010011110000
'12:31.531',-0.19,0.15,11111111110000011010000
'12:31.533',-0.16,0.17,11111111110010111000000
'12:31.536',-0.17,0.17,11111111110010000100000
'12:31.539',-0.165,0.17,11111111110010011110000
'12:31.542',-0.165,0.165,11111111110010011110000
'12:31.544',-0.165,0.145,11111111110010011110000
'12:31.547',-0.17,0.145,11111111110010000100000
'12:31.550',-0.165,0.16,11111111110010011110000
'12:31.553',-0.15,0.175,11111111110011101100000
'12:31.556',-0.125,0.19,11111111110101110000000
'12:31.558',-0.115,0.17,11111111110110100100000
'12:31.561',-0.14,0.155,11111111110100100000000
'12:31.564',-0.17,0.145,11111111110010000100000
'12:31.567',-0.175,0.15,11111111110001101010000
'12:31.569',-0.17,0.17,11111111110010000100000
'12:31.572',-0.14,0.175,11111111110100100000000
'12:31.575',-0.13,0.175,11111111110101010110000
'12:31.578',-0.145,0.165,11111111110100000110000
'12:31.581',-0.145,0.145,11111111110100000110000
'12:31.583',-0.16,0.15,11111111110010111000000
'12:31.586',-0.115,0.17,11111111110110100100000
'12:31.589',-0.11,0.18,11111111110110111110000
'12:31.592',-0.125,0.175,11111111110101110000000
'12:31.594',-0.14,0.17,11111111110100100000000
'12:31.597',-0.135,0.15,11111111110100111100000
'12:31.600',-0.14,0.16,11111111110100100000000
'12:31.603',-0.135,0.175,11111111110100111100000
'12:31.606',-0.11,0.185,11111111110110111110000
'12:31.608',-0.11,0.17,11111111110110111110000
'12:31.611',-0.115,0.165,11111111110110100100000
'12:31.614',-0.12,0.15,11111111110110001010000
'12:31.617',-0.135,0.16,11111111110100111100000
'12:31.619',-0.13,0.165,11111111110101010110000
'12:31.622',-0.125,0.175,11111111110101110000000
'12:31.625',-0.12,0.17,11111111110110001010000
'12:31.628',-0.125,0.15,11111111110101110000000
'12:31.631',-0.145,0.135,11111111110100000110000
'12:31.633',-0.15,0.135,11111111110011101100000
'12:31.636',-0.15,0.155,11111111110011101100000
'12:31.639',-0.135,0.17,11111111110100111100000
'12:31.642',-0.13,0.165,11111111110101010110000
'12:31.644',-0.13,0.155,11111111110101010110000
'12:31.647',-0.15,0.135,11111111110011101100000
'12:31.650',-0.145,0.125,11111111110100000110000
'12:31.653',-0.155,0.145,11111111110011010010000
'12:31.656',-0.15,0.14,11111111110011101100000
'12:31.658',-0.135,0.15,11111111110100111100000
'12:31.661',-0.14,0.135,11111111110100100000000
'12:31.664',-0.155,0.13,11111111110011010010000
'12:31.667',-0.165,0.145,11111111110010011110000
'12:31.669',-0.155,0.145,11111111110011010010000
'12:31.672',-0.15,0.165,11111111110011101100000
'12:31.675',-0.145,0.155,11111111110100000110000
'12:31.678',-0.16,0.14,11111111110010111000000
'12:31.681',-0.16,0.14,11111111110010111000000
'12:31.683',-0.155,0.15,11111111110011010010000
'12:31.686',-0.16,0.15,11111111110010111000000
'12:31.689',-0.16,0.175,11111111110010111000000
'12:31.692',-0.145,0.165,11111111110100000110000
'12:31.694',-0.155,0.155,11111111110011010010000
'12:31.697',-0.16,0.14,11111111110010111000000
'12:31.700',-0.16,0.145,11111111110010111000000
'12:31.703',-0.16,0.145,11111111110010111000000
'12:31.706',-0.14,0.175,11111111110100100000000
'12:31.708',-0.145,0.155,11111111110100000110000
'12:31.711',-0.155,0.14,11111111110011010010000
'12:31.714',-0.17,0.13,11111111110010000100000
'12:31.717',-0.175,0.13,11111111110001101010000
'12:31.719',-0.16,0.15,11111111110010111000000
'12:31.722',-0.155,0.17,11111111110011010010000
'12:31.725',-0.145,0.165,11111111110100000110000
'12:31.728',-0.16,0.14,11111111110010111000000
'12:31.731',-0.16,0.14,11111111110010111000000
'12:31.733',-0.16,0.135,11111111110010111000000
'12:31.736',-0.17,0.145,11111111110010000100000
'12:31.739',-0.145,0.165,11111111110100000110000
'12:31.742',-0.135,0.14,11111111110100111100000
'12:31.744',-0.125,0.14,11111111110101110000000
'12:31.747',-0.155,0.14,11111111110011010010000
'12:31.750',-0.165,0.145,11111111110010011110000
'12:31.753',-0.15,0.17,11111111110011101100000
'12:31.756',-0.145,0.165,11111111110100000110000
'12:31.758',-0.13,0.16,11111111110101010110000
'12:31.761',-0.14,0.14,11111111110100100000000
'12:31.764',-0.15,0.135,11111111110011101100000
'12:31.767',-0.16,0.145,11111111110010111000000
'12:31.769',-0.14,0.165,11111111110100100000000
'12:31.772',-0.135,0.17,11111111110100111100000
'12:31.775',-0.125,0.165,11111111110101110000000
'12:31.778',-0.14,0.16,11111111110100100000000
'12:31.781',-0.155,0.145,11111111110011010010000
'12:31.783',-0.16,0.15,11111111110010111000000
'12:31.786',-0.155,0.155,11111111110011010010000
'12:31.789',-0.13,0.16,11111111110101010110000
'12:31.792',-0.125,0.155,11111111110101110000000
'12:31.794',-0.135,0.145,11111111110100111100000
'12:31.797',-0.145,0.13,11111111110100000110000
'12:31.800',-0.16,0.135,11111111110010111000000
'12:31.803',-0.15,0.155,11111111110011101100000
'12:31.806',-0.135,0.15,11111111110100111100000
'12:31.808',-0.13,0.15,11111111110101010110000
'12:31.811',-0.15,0.14,11111111110011101100000
'12:31.814',-0.16,0.14,11111111110010111000000
'12:31.817',-0.145,0.14,11111111110100000110000
'12:31.819',-0.13,0.165,11111111110101010110000
'12:31.822',-0.115,0.175,11111111110110100100000
'12:31.825',-0.115,0.15,11111111110110100100000
'12:31.828',-0.135,0.125,11111111110100111100000
'12:31.831',-0.15,0.11,11111111110011101100000
'12:31.833',-0.155,0.135,11111111110011010010000
'12:31.836',-0.15,0.145,11111111110011101100000
'12:31.839',-0.13,0.165,11111111110101010110000
'12:31.842',-0.12,0.165,11111111110110001010000
'12:31.844',-0.14,0.16,11111111110100100000000
'12:31.847',-0.14,0.15,11111111110100100000000
'12:31.850',-0.165,0.15,11111111110010011110000
'12:31.853',-0.14,0.155,11111111110100100000000
'12:31.856',-0.125,0.18,11111111110101110000000
'12:31.858',-0.12,0.16,11111111110110001010000
'12:31.861',-0.125,0.16,11111111110101110000000
'12:31.864',-0.14,0.145,11111111110100100000000
'12:31.867',-0.155,0.16,11111111110011010010000
'12:31.869',-0.155,0.18,11111111110011010010000
'12:31.872',-0.14,0.185,11111111110100100000000
'12:31.875',-0.145,0.17,11111111110100000110000
'12:31.878',-0.14,0.165,11111111110100100000000
'12:31.881',-0.15,0.125,11111111110011101100000
'12:31.883',-0.14,0.135,11111111110100100000000
'12:31.886',-0.135,0.155,11111111110100111100000
'12:31.889',-0.125,0.165,11111111110101110000000
'12:31.892',-0.135,0.18,11111111110100111100000
'12:31.894',-0.135,0.165,11111111110100111100000
'12:31.897',-0.14,0.15,11111111110100100000000
'12:31.900',-0.145,0.155,11111111110100000110000
'12:31.903',-0.14,0.165,11111111110100100000000
'12:31.906',-0.125,0.165,11111111110101110000000
'12:31.908',-0.115,0.17,11111111110110100100000
'12:31.911',-0.125,0.165,11111111110101110000000
'12:31.914',-0.13,0.155,11111111110101010110000
'12:31.917',-0.145,0.17,11111111110100000110000
'12:31.919',-0.14,0.17,11111111110100100000000
'12:31.922',-0.12,0.18,11111111110110001010000
'12:31.925',-0.125,0.165,11111111110101110000000
'12:31.928',-0.125,0.16,11111111110101110000000
'12:31.931',-0.135,0.155,11111111110100111100000
'12:31.933',-0.12,0.165,11111111110110001010000
'12:31.936',-0.125,0.17,11111111110101110000000
'12:31.939',-0.11,0.175,11111111110110111110000
'12:31.942',-0.11,0.17,11111111110110111110000
'12:31.944',-0.115,0.145,11111111110110100100000
'12:31.947',-0.135,0.14,11111111110100111100000
'12:31.950',-0.11,0.155,11111111110110111110000
'12:31.953',-0.105,0.16,11111111110111011000000
'12:31.956',-0.105,0.185,11111111110111011000000
'12:31.958',-0.1,0.18,11111111110111110010000
'12:31.961',-0.11,0.165,11111111110110111110000
'12:31.964',-0.12,0.155,11111111110110001010000
'12:31.967',-0.12,0.165,11111111110110001010000
'12:31.969',-0.11,0.165,11111111110110111110000
'12:31.972',-0.095,0.165,11111111111000001100000
'12:31.975',-0.085,0.15,11111111111001000010000
'12:31.978',-0.09,0.145,11111111111000101000000
'12:31.981',-0.135,0.14,11111111110100111100000
'12:31.983',-0.14,0.155,11111111110100100000000
'12:31.986',-0.125,0.17,11111111110101110000000
'12:31.989',-0.09,0.19,11111111111000101000000
'12:31.992',-0.08,0.17,11111111111001011100000
'12:31.994',-0.1,0.17,11111111110111110010000
'12:31.997',-0.1,0.14,11111111110111110010000
'12:32.000',-0.12,0.155,11111111110110001010000
'12:32.003',-0.1,0.17,11111111110111110010000
'12:32.006',-0.08,0.18,11111111111001011100000
'12:32.008',-0.09,0.17,11111111111000101000000
'12:32.011',-0.1,0.165,11111111110111110010000
'12:32.014',-0.11,0.155,11111111110110111110000
'12:32.017',-0.11,0.15,11111111110110111110000
'12:32.019',-0.095,0.18,11111111111000001100000
'12:32.022',-0.08,0.18,11111111111001011100000
'12:32.025',-0.09,0.18,11111111111000101000000
'12:32.028',-0.11,0.155,11111111110110111110000
'12:32.031',-0.105,0.16,11111111110111011000000
'12:32.033',-0.115,0.155,11111111110110100100000
'12:32.036',-0.105,0.165,11111111110111011000000
'12:32.039',-0.08,0.175,11111111111001011100000
'12:32.042',-0.075,0.165,11111111111001110110000
'12:32.044',-0.085,0.145,11111111111001000010000
'12:32.047',-0.1,0.135,11111111110111110010000
'12:32.050',-0.095,0.15,11111111111000001100000
'12:32.053',-0.095,0.165,11111111111000001100000
'12:32.056',-0.08,0.185,11111111111001011100000
'12:32.058',-0.07,0.165,11111111111010010000000
'12:32.061',-0.075,0.165,11111111111001110110000
'12:32.064',-0.065,0.17,11111111111010101010000
'12:32.067',-0.085,0.205,11111111111001000010000
'12:32.069',-0.07,0.245,11111111111010010000000
'12:32.072',-0.045,0.305,11111111111100010100000
'12:32.075',-0.06,0.32,11111111111011000100000
'12:32.078',-0.075,0.295,11111111111001110110000
'12:32.081',-0.105,0.255,11111111110111011000000
'12:32.083',-0.125,0.185,11111111110101110000000
'12:32.086',-0.08,0.045,11111111111001011100000
'12:32.089',0.045,-0.155,00000000000011101010000
'12:32.092',0.23,-0.415,00000000010010110100000
'12:32.094',0.46,-0.585,00000000100101101010000
'12:32.097',0.68,-0.665,00000000110111101100000
'12:32.100',0.815,-0.62,00000001000010110000000
'12:32.103',0.87,-0.54,00000001000111010000000
'12:32.106',0.805,-0.435,00000001000001111100000
'12:32.108',0.585,-0.34,00000000101111111010000
'12:32.111',0.295,-0.225,00000000011000001010000
'12:32.114',0.09,-0.12,00000000000111010110000
'12:32.117',-0.03,-0.005,11111111111101100010000
'12:32.119',-0.03,0.105,11111111111101100010000
'12:32.122',-0.02,0.205,11111111111110010110000
'12:32.125',-0.005,0.22,11111111111111100100000
'12:32.128',0,0.205,00000000000000000000000
'12:32.131',-0.01,0.18,11111111111111001010000
'12:32.133',-0.04,0.18,11111111111100101110000
'12:32.136',-0.065,0.185,11111111111010101010000
'12:32.139',-0.04,0.17,11111111111100101110000
'12:32.142',-0.03,0.16,11111111111101100010000
'12:32.144',-0.04,0.14,11111111111100101110000
'12:32.147',-0.05,0.125,11111111111011111000000
'12:32.150',-0.055,0.13,11111111111011011110000
'12:32.153',-0.035,0.16,11111111111101001000000
'12:32.156',0.005,0.165,00000000000000011010000
'12:32.158',0.02,0.155,00000000000001101000000
'12:32.161',0.005,0.145,00000000000000011010000
'12:32.164',-0.015,0.145,11111111111110110000000
'12:32.167',-0.04,0.165,11111111111100101110000
'12:32.169',-0.05,0.185,11111111111011111000000
'12:32.172',-0.05,0.205,11111111111011111000000
'12:32.175',-0.05,0.2,11111111111011111000000
'12:32.178',-0.065,0.21,11111111111010101010000
'12:32.181',-0.065,0.21,11111111111010101010000
'12:32.183',-0.055,0.24,11111111111011011110000
'12:32.186',-0.06,0.245,11111111111011000100000
'12:32.189',-0.055,0.255,11111111111011011110000
'12:32.192',-0.075,0.245,11111111111001110110000
'12:32.194',-0.1,0.22,11111111110111110010000
'12:32.197',-0.12,0.23,11111111110110001010000
'12:32.200',-0.11,0.235,11111111110110111110000
'12:32.203',-0.105,0.255,11111111110111011000000
'12:32.206',-0.1,0.26,11111111110111110010000
'12:32.208',-0.095,0.245,11111111111000001100000
'12:32.211',-0.105,0.235,11111111110111011000000
'12:32.214',-0.11,0.245,11111111110110111110000
'12:32.217',-0.115,0.255,11111111110110100100000
'12:32.219',-0.085,0.255,11111111111001000010000
'12:32.222',-0.075,0.26,11111111111001110110000
'12:32.225',-0.06,0.265,11111111111011000100000
'12:32.228',-0.07,0.245,11111111111010010000000
'12:32.231',-0.09,0.24,11111111111000101000000
'12:32.233',-0.08,0.25,11111111111001011100000
'12:32.236',-0.085,0.275,11111111111001000010000
'12:32.239',-0.07,0.285,11111111111010010000000
'12:32.242',-0.065,0.28,11111111111010101010000
'12:32.244',-0.06,0.28,11111111111011000100000
'12:32.247',-0.08,0.27,11111111111001011100000
'12:32.250',-0.075,0.265,11111111111001110110000
'12:32.253',-0.06,0.275,11111111111011000100000
'12:32.256',-0.03,0.285,11111111111101100010000
'12:32.258',-0.04,0.295,11111111111100101110000
'12:32.261',-0.045,0.28,11111111111100010100000
'12:32.264',-0.06,0.28,11111111111011000100000
'12:32.267',-0.065,0.29,11111111111010101010000
'12:32.269',-0.065,0.3,11111111111010101010000
'12:32.272',-0.05,0.325,11111111111011111000000
'12:32.275',-0.035,0.31,11111111111101001000000
'12:32.278',-0.04,0.28,11111111111100101110000
'12:32.281',-0.065,0.275,11111111111010101010000
'12:32.283',-0.075,0.29,11111111111001110110000
'12:32.286',-0.065,0.31,11111111111010101010000
'12:32.289',-0.04,0.325,11111111111100101110000
'12:32.292',-0.05,0.32,11111111111011111000000
'12:32.294',-0.03,0.32,11111111111101100010000
'12:32.297',-0.04,0.29,11111111111100101110000
'12:32.300',-0.06,0.295,11111111111011000100000
'12:32.303',-0.085,0.31,11111111111001000010000
'12:32.306',-0.07,0.315,11111111111010010000000
'12:32.308',-0.075,0.315,11111111111001110110000
'12:32.311',-0.085,0.295,11111111111001000010000
'12:32.314',-0.095,0.285,11111111111000001100000
'12:32.317',-0.1,0.28,11111111110111110010000
'12:32.319',-0.09,0.305,11111111111000101000000
'12:32.322',-0.1,0.32,11111111110111110010000
'12:32.325',-0.09,0.3,11111111111000101000000
'12:32.328',-0.11,0.295,11111111110110111110000
'12:32.331',-0.13,0.28,11111111110101010110000
'12:32.333',-0.155,0.275,11111111110011010010000
'12:32.336',-0.145,0.3,11111111110100000110000
'12:32.339',-0.135,0.295,11111111110100111100000
'12:32.342',-0.165,0.295,11111111110010011110000
'12:32.344',-0.16,0.275,11111111110010111000000
'12:32.347',-0.2,0.265,11111111101111100110000
'12:32.350',-0.2,0.25,11111111101111100110000
'12:32.353',-0.2,0.27,11111111101111100110000
'12:32.356',-0.2,0.29,11111111101111100110000
'12:32.358',-0.175,0.28,11111111110001101010000
'12:32.361',-0.19,0.26,11111111110000011010000
'12:32.364',-0.205,0.245,11111111101111001100000
'12:32.367',-0.215,0.25,11111111101110011000000
'12:32.369',-0.21,0.26,11111111101110110010000
'12:32.372',-0.205,0.27,11111111101111001100000
'12:32.375',-0.215,0.245,11111111101110011000000
'12:32.378',-0.225,0.23,11111111101101100100000
'12:32.381',-0.235,0.22,11111111101100101110000
'12:32.383',-0.25,0.215,11111111101011100000000
'12:32.386',-0.245,0.23,11111111101011111010000
'12:32.389',-0.25,0.255,11111111101011100000000
'12:32.392',-0.25,0.24,11111111101011100000000
'12:32.394',-0.255,0.23,11111111101011000110000
'12:32.397',-0.27,0.205,11111111101001111000000
'12:32.400',-0.255,0.215,11111111101011000110000
'12:32.403',-0.245,0.21,11111111101011111010000
'12:32.406',-0.225,0.225,11111111101101100100000
'12:32.408',-0.225,0.215,11111111101101100100000
'12:32.411',-0.23,0.21,11111111101101001010000
'12:32.414',-0.24,0.195,11111111101100010100000
'12:32.417',-0.25,0.19,11111111101011100000000
'12:32.419',-0.235,0.205,11111111101100101110000
'12:32.422',-0.235,0.195,11111111101100101110000
'12:32.425',-0.225,0.18,11111111101101100100000
'12:32.428',-0.245,0.175,11111111101011111010000
'12:32.431',-0.245,0.16,11111111101011111010000
'12:32.433',-0.24,0.175,11111111101100010100000
'12:32.436',-0.24,0.19,11111111101100010100000
'12:32.439',-0.21,0.19,11111111101110110010000
'12:32.442',-0.225,0.19,11111111101101100100000
'12:32.444',-0.23,0.17,11111111101101001010000
'12:32.447',-0.22,0.15,11111111101101111110000
'12:32.450',-0.235,0.16,11111111101100101110000
'12:32.453',-0.225,0.175,11111111101101100100000
'12:32.456',-0.2,0.165,11111111101111100110000
'12:32.458',-0.2,0.145,11111111101111100110000
'12:32.461',-0.2,0.14,11111111101111100110000
'12:32.464',-0.21,0.14,11111111101110110010000
'12:32.467',-0.215,0.14,11111111101110011000000
'12:32.469',-0.2,0.155,11111111101111100110000
'12:32.472',-0.195,0.17,11111111110000000000000
'12:32.475',-0.17,0.17,11111111110010000100000
'12:32.478',-0.175,0.165,11111111110001101010000
'12:32.481',-0.155,0.15,11111111110011010010000
'12:32.483',-0.135,0.16,11111111110100111100000
'12:32.486',-0.125,0.165,11111111110101110000000
'12:32.489',-0.095,0.16,11111111111000001100000
'12:32.492',-0.095,0.17,11111111111000001100000
'12:32.494',-0.09,0.15,11111111111000101000000
'12:32.497',-0.09,0.125,11111111111000101000000
'12:32.500',-0.125,0.12,11111111110101110000000
'12:32.503',-0.135,0.125,11111111110100111100000
'12:32.506',-0.14,0.14,11111111110100100000000
'12:32.508',-0.17,0.15,11111111110010000100000
'12:32.511',-0.185,0.15,11111111110000110110000
'12:32.514',-0.2,0.15,11111111101111100110000
'12:32.517',-0.195,0.17,11111111110000000000000
'12:32.519',-0.17,0.205,11111111110010000100000
'12:32.522',-0.155,0.23,11111111110011010010000
'12:32.525',-0.145,0.23,11111111110100000110000
'12:32.528',-0.15,0.21,11111111110011101100000
'12:32.531',-0.155,0.195,11111111110011010010000
'12:32.533',-0.18,0.18,11111111110001010000000
'12:32.536',-0.185,0.17,11111111110000110110000
'12:32.539',-0.195,0.17,11111111110000000000000
'12:32.542',-0.2,0.145,11111111101111100110000
'12:32.544',-0.22,0.125,11111111101101111110000
'12:32.547',-0.235,0.12,11111111101100101110000
'12:32.550',-0.255,0.1,11111111101011000110000
'12:32.553',-0.265,0.12,11111111101010010010000
'12:32.556',-0.25,0.11,11111111101011100000000
'12:32.558',-0.255,0.11,11111111101011000110000
'12:32.561',-0.25,0.1,11111111101011100000000
'12:32.564',-0.275,0.08,11111111101001011110000
'12:32.567',-0.285,0.085,11111111101000101000000
'12:32.569',-0.27,0.105,11111111101001111000000
'12:32.572',-0.26,0.105,11111111101010101100000
'12:32.575',-0.26,0.095,11111111101010101100000
'12:32.578',-0.265,0.085,11111111101010010010000
'12:32.581',-0.28,0.07,11111111101001000010000
'12:32.583',-0.275,0.09,11111111101001011110000
'12:32.586',-0.27,0.11,11111111101001111000000
'12:32.589',-0.245,0.125,11111111101011111010000
'12:32.592',-0.23,0.11,11111111101101001010000
'12:32.594',-0.24,0.09,11111111101100010100000
'12:32.597',-0.255,0.07,11111111101011000110000
'12:32.600',-0.255,0.09,11111111101011000110000
'12:32.603',-0.255,0.105,11111111101011000110000
'12:32.606',-0.235,0.12,11111111101100101110000
'12:32.608',-0.24,0.1,11111111101100010100000
'12:32.611',-0.24,0.095,11111111101100010100000
'12:32.614',-0.255,0.09,11111111101011000110000
'12:32.617',-0.27,0.115,11111111101001111000000
'12:32.619',-0.255,0.16,11111111101011000110000
'12:32.622',-0.235,0.205,11111111101100101110000
'12:32.625',-0.235,0.23,11111111101100101110000
'12:32.628',-0.255,0.185,11111111101011000110000
'12:32.631',-0.3,0.12,11111111100111011010000
'12:32.633',-0.32,0.045,11111111100101110010000
'12:32.636',-0.34,-0.065,11111111100100001000000
'12:32.639',-0.31,-0.215,11111111100110100110000
'12:32.642',-0.245,-0.4,11111111101011111010000
'12:32.644',-0.13,-0.575,11111111110101010110000
'12:32.647',0.02,-0.685,00000000000001101000000
'12:32.650',0.205,-0.755,00000000010000110010000
'12:32.653',0.36,-0.725,00000000011101011110000
'12:32.656',0.455,-0.67,00000000100101010000000
'12:32.658',0.395,-0.585,00000000100000010110000
'12:32.661',0.21,-0.47,00000000010001001100000
'12:32.664',-0.04,-0.34,11111111111100101110000
'12:32.667',-0.23,-0.19,11111111101101001010000
'12:32.669',-0.325,-0.06,11111111100101011000000
'12:32.672',-0.365,0.035,11111111100010000110000
'12:32.675',-0.35,0.12,11111111100011010100000
'12:32.678',-0.34,0.175,11111111100100001000000
'12:32.681',-0.315,0.195,11111111100110001100000
'12:32.683',-0.29,0.185,11111111101000001110000
'12:32.686',-0.265,0.205,11111111101010010010000
'12:32.689',-0.255,0.21,11111111101011000110000
'12:32.692',-0.265,0.195,11111111101010010010000
'12:32.694',-0.27,0.185,11111111101001111000000
'12:32.697',-0.275,0.16,11111111101001011110000
'12:32.700',-0.29,0.175,11111111101000001110000
'12:32.703',-0.295,0.18,11111111100111110100000
'12:32.706',-0.285,0.185,11111111101000101000000
'12:32.708',-0.265,0.18,11111111101010010010000
'12:32.711',-0.27,0.17,11111111101001111000000
'12:32.714',-0.285,0.15,11111111101000101000000
'12:32.717',-0.295,0.15,11111111100111110100000
'12:32.719',-0.285,0.175,11111111101000101000000
'12:32.722',-0.26,0.165,11111111101010101100000
'12:32.725',-0.245,0.155,11111111101011111010000
'12:32.728',-0.25,0.13,11111111101011100000000
'12:32.731',-0.255,0.125,11111111101011000110000
'12:32.733',-0.27,0.14,11111111101001111000000
'12:32.736',-0.26,0.155,11111111101010101100000
'12:32.739',-0.26,0.18,11111111101010101100000
'12:32.742',-0.265,0.18,11111111101010010010000
'12:32.744',-0.25,0.17,11111111101011100000000
'12:32.747',-0.245,0.16,11111111101011111010000
'12:32.750',-0.235,0.165,11111111101100101110000
'12:32.753',-0.225,0.185,11111111101101100100000
'12:32.756',-0.215,0.18,11111111101110011000000
'12:32.758',-0.2,0.18,11111111101111100110000
'12:32.761',-0.195,0.165,11111111110000000000000
'12:32.764',-0.205,0.175,11111111101111001100000
'12:32.767',-0.185,0.175,11111111110000110110000
'12:32.769',-0.18,0.175,11111111110001010000000
'12:32.772',-0.18,0.185,11111111110001010000000
'12:32.775',-0.18,0.185,11111111110001010000000
'12:32.778',-0.21,0.165,11111111101110110010000
'12:32.781',-0.24,0.155,11111111101100010100000
'12:32.783',-0.23,0.17,11111111101101001010000
'12:32.786',-0.215,0.19,11111111101110011000000
'12:32.789',-0.225,0.195,11111111101101100100000
'12:32.792',-0.225,0.195,11111111101101100100000
'12:32.794',-0.245,0.19,11111111101011111010000
'12:32.797',-0.265,0.195,11111111101010010010000
'12:32.800',-0.28,0.2,11111111101001000010000
'12:32.803',-0.28,0.235,11111111101001000010000
'12:32.806',-0.275,0.225,11111111101001011110000
'12:32.808',-0.275,0.22,11111111101001011110000
'12:32.811',-0.29,0.19,11111111101000001110000
'12:32.814',-0.305,0.175,11111111100111000000000
'12:32.817',-0.305,0.195,11111111100111000000000
'12:32.819',-0.31,0.185,11111111100110100110000
'12:32.822',-0.3,0.195,11111111100111011010000
'12:32.825',-0.295,0.175,11111111100111110100000
'12:32.828',-0.295,0.155,11111111100111110100000
'12:32.831',-0.32,0.14,11111111100101110010000
'12:32.833',-0.335,0.135,11111111100100100010000
'12:32.836',-0.325,0.14,11111111100101011000000
'12:32.839',-0.31,0.155,11111111100110100110000
'12:32.842',-0.33,0.155,11111111100100111100000
'12:32.844',-0.325,0.135,11111111100101011000000
'12:32.847',-0.37,0.12,11111111100001101100000
'12:32.850',-0.38,0.12,11111111100000110110000
'12:32.853',-0.365,0.125,11111111100010000110000
'12:32.856',-0.355,0.145,11111111100010111010000
'12:32.858',-0.35,0.145,11111111100011010100000
'12:32.861',-0.345,0.135,11111111100011101110000
'12:32.864',-0.36,0.125,11111111100010100000000
'12:32.867',-0.375,0.15,11111111100001010000000
'12:32.869',-0.355,0.15,11111111100010111010000
'12:32.872',-0.365,0.15,11111111100010000110000
'12:32.875',-0.36,0.135,11111111100010100000000
'12:32.878',-0.38,0.13,11111111100000110110000
'12:32.881',-0.4,0.12,11111111011111001110000
'12:32.883',-0.415,0.13,11111111011110000000000
'12:32.886',-0.395,0.14,11111111011111101000000
'12:32.889',-0.385,0.16,11111111100000011100000
'12:32.892',-0.395,0.16,11111111011111101000000
'12:32.894',-0.4,0.15,11111111011111001110000
'12:32.897',-0.42,0.14,11111111011101100100000
'12:32.900',-0.425,0.135,11111111011101001010000
'12:32.903',-0.41,0.15,11111111011110011010000
'12:32.906',-0.415,0.16,11111111011110000000000
'12:32.908',-0.43,0.145,11111111011100110000000
'12:32.911',-0.44,0.135,11111111011011111100000
'12:32.914',-0.445,0.125,11111111011011100010000
'12:32.917',-0.45,0.145,11111111011011001000000
'12:32.919',-0.455,0.16,11111111011010101110000
'12:32.922',-0.45,0.165,11111111011011001000000
'12:32.925',-0.455,0.145,11111111011010101110000
'12:32.928',-0.455,0.145,11111111011010101110000
'12:32.931',-0.47,0.135,11111111011001011110000
'12:32.933',-0.46,0.14,11111111011010010100000
'12:32.936',-0.46,0.15,11111111011010010100000
'12:32.939',-0.44,0.17,11111111011011111100000
'12:32.942',-0.445,0.16,11111111011011100010000
'12:32.944',-0.455,0.15,11111111011010101110000
'12:32.947',-0.45,0.14,11111111011011001000000
'12:32.950',-0.455,0.14,11111111011010101110000
'12:32.953',-0.44,0.14,11111111011011111100000
'12:32.956',-0.43,0.14,11111111011100110000000
'12:32.958',-0.415,0.135,11111111011110000000000
'12:32.961',-0.435,0.13,11111111011100010110000
'12:32.964',-0.435,0.13,11111111011100010110000
'12:32.967',-0.425,0.125,11111111011101001010000
'12:32.969',-0.415,0.155,11111111011110000000000
'12:32.972',-0.395,0.155,11111111011111101000000
'12:32.975',-0.4,0.14,11111111011111001110000
'12:32.978',-0.415,0.12,11111111011110000000000
'12:32.981',-0.42,0.115,11111111011101100100000
'12:32.983',-0.415,0.12,11111111011110000000000
'12:32.986',-0.405,0.13,11111111011110110100000
'12:32.989',-0.385,0.155,11111111100000011100000
'12:32.992',-0.38,0.135,11111111100000110110000
'12:32.994',-0.39,0.12,11111111100000000010000
'12:32.997',-0.415,0.105,11111111011110000000000
'12:33.000',-0.41,0.12,11111111011110011010000
'12:33.003',-0.375,0.12,11111111100001010000000
'12:33.006',-0.355,0.125,11111111100010111010000
'12:33.008',-0.35,0.13,11111111100011010100000
'12:33.011',-0.34,0.115,11111111100100001000000
'12:33.014',-0.35,0.1,11111111100011010100000
'12:33.017',-0.365,0.11,11111111100010000110000
'12:33.019',-0.365,0.14,11111111100010000110000
'12:33.022',-0.35,0.15,11111111100011010100000
'12:33.025',-0.32,0.155,11111111100101110010000
'12:33.028',-0.33,0.17,11111111100100111100000
'12:33.031',-0.35,0.195,11111111100011010100000
'12:33.033',-0.38,0.22,11111111100000110110000
'12:33.036',-0.39,0.21,11111111100000000010000
'12:33.039',-0.385,0.15,11111111100000011100000
'12:33.042',-0.33,0.05,11111111100100111100000
'12:33.044',-0.23,-0.1,11111111101101001010000
'12:33.047',-0.08,-0.25,11111111111001011100000
'12:33.050',0.07,-0.39,00000000000101101110000
'12:33.053',0.2,-0.52,00000000010000011000000
'12:33.056',0.35,-0.615,00000000011100101010000
'12:33.058',0.515,-0.65,00000000101010001100000
'12:33.061',0.705,-0.635,00000000111001110000000
'12:33.064',0.82,-0.565,00000001000011001010000
'12:33.067',0.84,-0.475,00000001000100110100000
'12:33.069',0.75,-0.375,00000000111101011100000
'12:33.072',0.555,-0.265,00000000101101011100000
'12:33.075',0.285,-0.14,00000000010111010110000
'12:33.078',0.065,0.02,00000000000101010100000
'12:33.081',-0.065,0.125,11111111111010101010000
'12:33.083',-0.11,0.17,11111111110110111110000
'12:33.086',-0.125,0.19,11111111110101110000000
'12:33.089',-0.175,0.21,11111111110001101010000
'12:33.092',-0.2,0.19,11111111101111100110000
'12:33.094',-0.25,0.165,11111111101011100000000
'12:33.097',-0.295,0.155,11111111100111110100000
'12:33.100',-0.315,0.155,11111111100110001100000
'12:33.103',-0.31,0.18,11111111100110100110000
'12:33.106',-0.29,0.19,11111111101000001110000
'12:33.108',-0.285,0.17,11111111101000101000000
'12:33.111',-0.305,0.165,11111111100111000000000
'12:33.114',-0.325,0.165,11111111100101011000000
'12:33.117',-0.33,0.16,11111111100100111100000
'12:33.119',-0.32,0.15,11111111100101110010000
'12:33.122',-0.315,0.17,11111111100110001100000
'12:33.125',-0.31,0.16,11111111100110100110000
'12:33.128',-0.315,0.145,11111111100110001100000
'12:33.131',-0.335,0.13,11111111100100100010000
'12:33.133',-0.325,0.14,11111111100101011000000
'12:33.136',-0.315,0.165,11111111100110001100000
'12:33.139',-0.3,0.165,11111111100111011010000
'12:33.142',-0.3,0.155,11111111100111011010000
'12:33.144',-0.3,0.15,11111111100111011010000
'12:33.147',-0.315,0.135,11111111100110001100000
'12:33.150',-0.31,0.135,11111111100110100110000
'12:33.153',-0.3,0.145,11111111100111011010000
'12:33.156',-0.29,0.17,11111111101000001110000
'12:33.158',-0.29,0.16,11111111101000001110000
'12:33.161',-0.3,0.155,11111111100111011010000
'12:33.164',-0.305,0.135,11111111100111000000000
'12:33.167',-0.32,0.155,11111111100101110010000
'12:33.169',-0.295,0.165,11111111100111110100000
'12:33.172',-0.285,0.175,11111111101000101000000
'12:33.175',-0.29,0.18,11111111101000001110000
'12:33.178',-0.3,0.16,11111111100111011010000
'12:33.181',-0.32,0.145,11111111100101110010000
'12:33.183',-0.32,0.155,11111111100101110010000
'12:33.186',-0.305,0.155,11111111100111000000000
'12:33.189',-0.28,0.17,11111111101001000010000
'12:33.192',-0.285,0.16,11111111101000101000000
'12:33.194',-0.31,0.135,11111111100110100110000
'12:33.197',-0.3,0.135,11111111100111011010000
'12:33.200',-0.32,0.15,11111111100101110010000
'12:33.203',-0.3,0.17,11111111100111011010000
'12:33.206',-0.29,0.19,11111111101000001110000
'12:33.208',-0.29,0.175,11111111101000001110000
'12:33.211',-0.295,0.145,11111111100111110100000
'12:33.214',-0.305,0.14,11111111100111000000000
'12:33.217',-0.305,0.145,11111111100111000000000
'12:33.219',-0.3,0.165,11111111100111011010000
'12:33.222',-0.3,0.185,11111111100111011010000
'12:33.225',-0.29,0.175,11111111101000001110000
'12:33.228',-0.3,0.17,11111111100111011010000
'12:33.231',-0.31,0.16,11111111100110100110000
'12:33.233',-0.32,0.165,11111111100101110010000
'12:33.236',-0.305,0.18,11111111100111000000000
'12:33.239',-0.29,0.195,11111111101000001110000
'12:33.242',-0.295,0.175,11111111100111110100000
'12:33.244',-0.305,0.17,11111111100111000000000
'12:33.247',-0.325,0.16,11111111100101011000000
'12:33.250',-0.325,0.165,11111111100101011000000
'12:33.253',-0.32,0.185,11111111100101110010000
'12:33.256',-0.305,0.2,11111111100111000000000
'12:33.258',-0.305,0.185,11111111100111000000000
'12:33.261',-0.32,0.165,11111111100101110010000
'12:33.264',-0.335,0.165,11111111100100100010000
'12:33.267',-0.36,0.17,11111111100010100000000
'12:33.269',-0.355,0.18,11111111100010111010000
'12:33.272',-0.335,0.195,11111111100100100010000
'12:33.275',-0.33,0.185,11111111100100111100000
'12:33.278',-0.34,0.175,11111111100100001000000
'12:33.281',-0.355,0.175,11111111100010111010000
'12:33.283',-0.365,0.17,11111111100010000110000
'12:33.286',-0.36,0.18,11111111100010100000000
'12:33.289',-0.37,0.19,11111111100001101100000
'12:33.292',-0.38,0.185,11111111100000110110000
'12:33.294',-0.405,0.185,11111111011110110100000
'12:33.297',-0.4,0.175,11111111011111001110000
'12:33.300',-0.4,0.195,11111111011111001110000
'12:33.303',-0.4,0.205,11111111011111001110000
'12:33.306',-0.385,0.21,11111111100000011100000
'12:33.308',-0.375,0.2,11111111100001010000000
'12:33.311',-0.39,0.18,11111111100000000010000
'12:33.314',-0.39,0.17,11111111100000000010000
'12:33.317',-0.405,0.19,11111111011110110100000
'12:33.319',-0.39,0.205,11111111100000000010000
'12:33.322',-0.36,0.215,11111111100010100000000
'12:33.325',-0.365,0.2,11111111100010000110000
'12:33.328',-0.36,0.19,11111111100010100000000
'12:33.331',-0.375,0.165,11111111100001010000000
'12:33.333',-0.37,0.175,11111111100001101100000
'12:33.336',-0.345,0.19,11111111100011101110000
'12:33.339',-0.315,0.19,11111111100110001100000
'12:33.342',-0.315,0.175,11111111100110001100000
'12:33.344',-0.305,0.155,11111111100111000000000
'12:33.347',-0.32,0.15,11111111100101110010000
'12:33.350',-0.325,0.145,11111111100101011000000
'12:33.353',-0.305,0.155,11111111100111000000000
'12:33.356',-0.295,0.16,11111111100111110100000
'12:33.358',-0.285,0.145,11111111101000101000000
'12:33.361',-0.27,0.14,11111111101001111000000
'12:33.364',-0.285,0.115,11111111101000101000000
'12:33.367',-0.29,0.14,11111111101000001110000
'12:33.369',-0.265,0.15,11111111101010010010000
'12:33.372',-0.235,0.155,11111111101100101110000
'12:33.375',-0.22,0.14,11111111101101111110000
'12:33.378',-0.235,0.14,11111111101100101110000
'12:33.381',-0.225,0.13,11111111101101100100000
'12:33.383',-0.25,0.13,11111111101011100000000
'12:33.386',-0.23,0.155,11111111101101001010000
'12:33.389',-0.23,0.155,11111111101101001010000
'12:33.392',-0.215,0.16,11111111101110011000000
'12:33.394',-0.225,0.14,11111111101101100100000
'12:33.397',-0.22,0.12,11111111101101111110000
'12:33.400',-0.225,0.12,11111111101101100100000
'12:33.403',-0.215,0.125,11111111101110011000000
'12:33.406',-0.2,0.135,11111111101111100110000
'12:33.408',-0.185,0.14,11111111110000110110000
'12:33.411',-0.195,0.135,11111111110000000000000
'12:33.414',-0.2,0.125,11111111101111100110000
'12:33.417',-0.2,0.13,11111111101111100110000
'12:33.419',-0.185,0.125,11111111110000110110000
'12:33.422',-0.17,0.14,11111111110010000100000
'12:33.425',-0.17,0.135,11111111110010000100000
'12:33.428',-0.175,0.115,11111111110001101010000
'12:33.431',-0.18,0.125,11111111110001010000000
'12:33.433',-0.19,0.13,11111111110000011010000
'12:33.436',-0.18,0.135,11111111110001010000000
'12:33.439',-0.165,0.155,11111111110010011110000
'12:33.442',-0.155,0.16,11111111110011010010000
'12:33.444',-0.16,0.14,11111111110010111000000
'12:33.447',-0.165,0.12,11111111110010011110000
'12:33.450',-0.16,0.13,11111111110010111000000
'12:33.453',-0.15,0.135,11111111110011101100000
'12:33.456',-0.135,0.13,11111111110100111100000
'12:33.458',-0.145,0.13,11111111110100000110000
'12:33.461',-0.15,0.12,11111111110011101100000
'12:33.464',-0.165,0.12,11111111110010011110000
'12:33.467',-0.165,0.13,11111111110010011110000
'12:33.469',-0.15,0.155,11111111110011101100000
'12:33.472',-0.135,0.16,11111111110100111100000
'12:33.475',-0.14,0.14,11111111110100100000000
'12:33.478',-0.14,0.13,11111111110100100000000
'12:33.481',-0.15,0.11,11111111110011101100000
'12:33.483',-0.15,0.12,11111111110011101100000
'12:33.486',-0.14,0.135,11111111110100100000000
'12:33.489',-0.13,0.145,11111111110101010110000
'12:33.492',-0.135,0.135,11111111110100111100000
'12:33.494',-0.14,0.13,11111111110100100000000
'12:33.497',-0.15,0.12,11111111110011101100000
'12:33.500',-0.155,0.12,11111111110011010010000
'12:33.503',-0.135,0.13,11111111110100111100000
'12:33.506',-0.125,0.135,11111111110101110000000
'12:33.508',-0.125,0.15,11111111110101110000000
'12:33.511',-0.14,0.135,11111111110100100000000
'12:33.514',-0.15,0.13,11111111110011101100000
'12:33.517',-0.15,0.145,11111111110011101100000
'12:33.519',-0.13,0.14,11111111110101010110000
'12:33.522',-0.11,0.16,11111111110110111110000
'12:33.525',-0.115,0.15,11111111110110100100000
'12:33.528',-0.135,0.125,11111111110100111100000
'12:33.531',-0.145,0.12,11111111110100000110000
'12:33.533',-0.145,0.135,11111111110100000110000
'12:33.536',-0.125,0.135,11111111110101110000000
'12:33.539',-0.11,0.17,11111111110110111110000
'12:33.542',-0.11,0.135,11111111110110111110000
'12:33.544',-0.125,0.14,11111111110101110000000
'12:33.547',-0.135,0.12,11111111110100111100000
'12:33.550',-0.125,0.125,11111111110101110000000
'12:33.553',-0.12,0.14,11111111110110001010000
'12:33.556',-0.115,0.15,11111111110110100100000
'12:33.558',-0.125,0.14,11111111110101110000000
'12:33.561',-0.13,0.135,11111111110101010110000
'12:33.564',-0.13,0.13,11111111110101010110000
'12:33.567',-0.13,0.14,11111111110101010110000
'12:33.569',-0.12,0.15,11111111110110001010000
'12:33.572',-0.125,0.15,11111111110101110000000
'12:33.575',-0.115,0.15,11111111110110100100000
'12:33.578',-0.12,0.145,11111111110110001010000
'12:33.581',-0.14,0.135,11111111110100100000000
'12:33.583',-0.145,0.145,11111111110100000110000
'12:33.586',-0.12,0.155,11111111110110001010000
'12:33.589',-0.115,0.17,11111111110110100100000
'12:33.592',-0.115,0.165,11111111110110100100000
'12:33.594',-0.105,0.145,11111111110111011000000
'12:33.597',-0.12,0.14,11111111110110001010000
'12:33.600',-0.12,0.135,11111111110110001010000
'12:33.603',-0.125,0.145,11111111110101110000000
'12:33.606',-0.1,0.16,11111111110111110010000
'12:33.608',-0.095,0.155,11111111111000001100000
'12:33.611',-0.1,0.145,11111111110111110010000
'12:33.614',-0.115,0.115,11111111110110100100000
'12:33.617',-0.13,0.125,11111111110101010110000
'12:33.619',-0.115,0.135,11111111110110100100000
'12:33.622',-0.1,0.145,11111111110111110010000
'12:33.625',-0.1,0.135,11111111110111110010000
'12:33.628',-0.115,0.125,11111111110110100100000
'12:33.631',-0.125,0.115,11111111110101110000000
'12:33.633',-0.125,0.13,11111111110101110000000
'12:33.636',-0.115,0.145,11111111110110100100000
'12:33.639',-0.105,0.15,11111111110111011000000
'12:33.642',-0.095,0.155,11111111111000001100000
'12:33.644',-0.125,0.13,11111111110101110000000
'12:33.647',-0.115,0.12,11111111110110100100000
'12:33.650',-0.12,0.125,11111111110110001010000
'12:33.653',-0.115,0.14,11111111110110100100000
'12:33.656',-0.105,0.15,11111111110111011000000
'12:33.658',-0.105,0.15,11111111110111011000000
'12:33.661',-0.1,0.14,11111111110111110010000
'12:33.664',-0.115,0.125,11111111110110100100000
'12:33.667',-0.12,0.135,11111111110110001010000
'12:33.669',-0.105,0.125,11111111110111011000000
'12:33.672',-0.115,0.16,11111111110110100100000
'12:33.675',-0.1,0.14,11111111110111110010000
'12:33.678',-0.115,0.145,11111111110110100100000
'12:33.681',-0.115,0.13,11111111110110100100000
'12:33.683',-0.11,0.135,11111111110110111110000
'12:33.686',-0.09,0.145,11111111111000101000000
'12:33.689',-0.085,0.145,11111111111001000010000
'12:33.692',-0.085,0.13,11111111111001000010000
'12:33.694',-0.12,0.13,11111111110110001010000
'12:33.697',-0.135,0.12,11111111110100111100000
'12:33.700',-0.125,0.14,11111111110101110000000
'12:33.703',-0.105,0.16,11111111110111011000000
'12:33.706',-0.085,0.155,11111111111001000010000
'12:33.708',-0.095,0.155,11111111111000001100000
'12:33.711',-0.105,0.145,11111111110111011000000
'12:33.714',-0.11,0.14,11111111110110111110000
'12:33.717',-0.12,0.135,11111111110110001010000
'12:33.719',-0.115,0.14,11111111110110100100000
'12:33.722',-0.09,0.15,11111111111000101000000
'12:33.725',-0.08,0.15,11111111111001011100000
'12:33.728',-0.09,0.14,11111111111000101000000
'12:33.731',-0.11,0.135,11111111110110111110000
'12:33.733',-0.115,0.13,11111111110110100100000
'12:33.736',-0.1,0.14,11111111110111110010000
'12:33.739',-0.085,0.145,11111111111001000010000
'12:33.742',-0.09,0.135,11111111111000101000000
'12:33.744',-0.09,0.125,11111111111000101000000
'12:33.747',-0.115,0.125,11111111110110100100000
'12:33.750',-0.115,0.14,11111111110110100100000
'12:33.753',-0.105,0.135,11111111110111011000000
'12:33.756',-0.095,0.16,11111111111000001100000
'12:33.758',-0.095,0.14,11111111111000001100000
'12:33.761',-0.095,0.135,11111111111000001100000
'12:33.764',-0.1,0.13,11111111110111110010000
'12:33.767',-0.105,0.125,11111111110111011000000
'12:33.769',-0.105,0.145,11111111110111011000000
'12:33.772',-0.095,0.15,11111111111000001100000
'12:33.775',-0.095,0.135,11111111111000001100000
'12:33.778',-0.095,0.125,11111111111000001100000
'12:33.781',-0.115,0.12,11111111110110100100000
'12:33.783',-0.125,0.135,11111111110101110000000
'12:33.786',-0.095,0.14,11111111111000001100000
'12:33.789',-0.08,0.15,11111111111001011100000
'12:33.792',-0.085,0.15,11111111111001000010000
'12:33.794',-0.095,0.135,11111111111000001100000
'12:33.797',-0.11,0.125,11111111110110111110000
'12:33.800',-0.11,0.14,11111111110110111110000
'12:33.803',-0.1,0.145,11111111110111110010000
'12:33.806',-0.085,0.155,11111111111001000010000
'12:33.808',-0.09,0.14,11111111111000101000000
'12:33.811',-0.08,0.125,11111111111001011100000
'12:33.814',-0.105,0.12,11111111110111011000000
'12:33.817',-0.13,0.125,11111111110101010110000
'12:33.819',-0.09,0.135,11111111111000101000000
'12:33.822',-0.075,0.17,11111111111001110110000
'12:33.825',-0.08,0.15,11111111111001011100000
'12:33.828',-0.085,0.135,11111111111001000010000
'12:33.831',-0.1,0.125,11111111110111110010000
'12:33.833',-0.095,0.135,11111111111000001100000
'12:33.836',-0.1,0.14,11111111110111110010000
'12:33.839',-0.09,0.155,11111111111000101000000
'12:33.842',-0.08,0.15,11111111111001011100000
'12:33.844',-0.075,0.135,11111111111001110110000
'12:33.847',-0.1,0.125,11111111110111110010000
'12:33.850',-0.095,0.135,11111111111000001100000
'12:33.853',-0.095,0.14,11111111111000001100000
'12:33.856',-0.085,0.15,11111111111001000010000
'12:33.858',-0.08,0.15,11111111111001011100000
'12:33.861',-0.075,0.145,11111111111001110110000
'12:33.864',-0.095,0.125,11111111111000001100000
'12:33.867',-0.1,0.135,11111111110111110010000
'12:33.869',-0.09,0.145,11111111111000101000000
'12:33.872',-0.08,0.165,11111111111001011100000
'12:33.875',-0.08,0.155,11111111111001011100000
'12:33.878',-0.09,0.135,11111111111000101000000
'12:33.881',-0.09,0.115,11111111111000101000000
'12:33.883',-0.08,0.135,11111111111001011100000
'12:33.886',-0.07,0.145,11111111111010010000000
'12:33.889',-0.055,0.165,11111111111011011110000
'12:33.892',-0.055,0.16,11111111111011011110000
'12:33.894',-0.06,0.155,11111111111011000100000
'12:33.897',-0.075,0.145,11111111111001110110000
'12:33.900',-0.08,0.16,11111111111001011100000
'12:33.903',-0.055,0.175,11111111111011011110000
'12:33.906',-0.05,0.185,11111111111011111000000
'12:33.908',-0.04,0.185,11111111111100101110000
'12:33.911',-0.05,0.165,11111111111011111000000
'12:33.914',-0.055,0.15,11111111111011011110000
'12:33.917',-0.05,0.145,11111111111011111000000
'12:33.919',-0.03,0.16,11111111111101100010000
'12:33.922',0,0.165,00000000000000000000000
'12:33.925',0.015,0.165,00000000000001001110000
'12:33.928',0.02,0.15,00000000000001101000000
'12:33.931',0.025,0.125,00000000000010000010000
'12:33.933',0.045,0.115,00000000000011101010000
'12:33.936',0.07,0.09,00000000000101101110000
'12:33.939',0.09,0.09,00000000000111010110000
'12:33.942',0.1,0.085,00000000001000001100000
'12:33.944',0.085,0.07,00000000000110111100000
'12:33.947',0.07,0.065,00000000000101101110000
'12:33.950',0.055,0.075,00000000000100100000000
'12:33.953',0.06,0.085,00000000000100111010000
'12:33.956',0.07,0.11,00000000000101101110000
'12:33.958',0.085,0.11,00000000000110111100000
'12:33.961',0.045,0.105,00000000000011101010000
'12:33.964',0.025,0.115,00000000000010000010000
'12:33.967',0.015,0.135,00000000000001001110000
'12:33.969',0.03,0.15,00000000000010011100000
'12:33.972',0.015,0.165,00000000000001001110000
'12:33.975',-0.005,0.15,11111111111111100100000
'12:33.978',-0.025,0.135,11111111111101111100000
'12:33.981',-0.055,0.115,11111111111011011110000
'12:33.983',-0.075,0.13,11111111111001110110000
'12:33.986',-0.095,0.14,11111111111000001100000
'12:33.989',-0.075,0.15,11111111111001110110000
'12:33.992',-0.08,0.145,11111111111001011100000
'12:33.994',-0.09,0.13,11111111111000101000000
'12:33.997',-0.1,0.125,11111111110111110010000
'12:34.000',-0.12,0.12,11111111110110001010000
'12:34.003',-0.11,0.145,11111111110110111110000
'12:34.006',-0.09,0.15,11111111111000101000000
'12:34.008',-0.08,0.15,11111111111001011100000
'12:34.011',-0.095,0.145,11111111111000001100000
'12:34.014',-0.095,0.155,11111111111000001100000
'12:34.017',-0.09,0.205,11111111111000101000000
'12:34.019',-0.08,0.26,11111111111001011100000
'12:34.022',-0.07,0.29,11111111111010010000000
'12:34.025',-0.05,0.255,11111111111011111000000
'12:34.028',-0.065,0.185,11111111111010101010000
'12:34.031',-0.075,0.07,11111111111001110110000
'12:34.033',-0.04,-0.065,11111111111100101110000
'12:34.036',0.02,-0.235,00000000000001101000000
'12:34.039',0.165,-0.41,00000000001101100000000
'12:34.042',0.32,-0.58,00000000011010001100000
'12:34.044',0.455,-0.73,00000000100101010000000
'12:34.047',0.57,-0.815,00000000101110101100000
'12:34.050',0.67,-0.8,00000000110110111000000
'12:34.053',0.745,-0.76,00000000111101000000000
'12:34.056',0.745,-0.65,00000000111101000000000
'12:34.058',0.645,-0.56,00000000110100110100000
'12:34.061',0.445,-0.435,00000000100100011100000
'12:34.064',0.195,-0.325,00000000001111111110000
'12:34.067',0,-0.16,00000000000000000000000
'12:34.069',-0.065,-0.005,11111111111010101010000
'12:34.072',-0.095,0.12,11111111111000001100000
'12:34.075',-0.085,0.18,11111111111001000010000
'12:34.078',-0.09,0.2,11111111111000101000000
'12:34.081',-0.085,0.2,11111111111001000010000
'12:34.083',-0.095,0.215,11111111111000001100000
'12:34.086',-0.1,0.22,11111111110111110010000
'12:34.089',-0.08,0.23,11111111111001011100000
'12:34.092',-0.09,0.225,11111111111000101000000
'12:34.094',-0.11,0.225,11111111110110111110000
'12:34.097',-0.125,0.21,11111111110101110000000
'12:34.100',-0.12,0.225,11111111110110001010000
'12:34.103',-0.105,0.23,11111111110111011000000
'12:34.106',-0.08,0.25,11111111111001011100000
'12:34.108',-0.085,0.245,11111111111001000010000
'12:34.111',-0.1,0.215,11111111110111110010000
'12:34.114',-0.115,0.215,11111111110110100100000
'12:34.117',-0.11,0.225,11111111110110111110000
'12:34.119',-0.09,0.25,11111111111000101000000
'12:34.122',-0.075,0.25,11111111111001110110000
'12:34.125',-0.075,0.25,11111111111001110110000
'12:34.128',-0.09,0.225,11111111111000101000000
'12:34.131',-0.12,0.22,11111111110110001010000
'12:34.133',-0.1,0.23,11111111110111110010000
'12:34.136',-0.08,0.24,11111111111001011100000
'12:34.139',-0.07,0.245,11111111111010010000000
'12:34.142',-0.07,0.255,11111111111010010000000
'12:34.144',-0.07,0.23,11111111111010010000000
'12:34.147',-0.085,0.225,11111111111001000010000
'12:34.150',-0.095,0.22,11111111111000001100000
'12:34.153',-0.09,0.24,11111111111000101000000
'12:34.156',-0.08,0.25,11111111111001011100000
'12:34.158',-0.08,0.235,11111111111001011100000
'12:34.161',-0.07,0.23,11111111111010010000000
'12:34.164',-0.08,0.23,11111111111001011100000
'12:34.167',-0.075,0.225,11111111111001110110000
'12:34.169',-0.07,0.24,11111111111010010000000
'12:34.172',-0.065,0.26,11111111111010101010000
'12:34.175',-0.05,0.245,11111111111011111000000
'12:34.178',-0.055,0.24,11111111111011011110000
'12:34.181',-0.075,0.225,11111111111001110110000
'12:34.183',-0.065,0.23,11111111111010101010000
'12:34.186',-0.055,0.235,11111111111011011110000
'12:34.189',-0.05,0.245,11111111111011111000000
'12:34.192',-0.05,0.235,11111111111011111000000
'12:34.194',-0.05,0.23,11111111111011111000000
'12:34.197',-0.065,0.215,11111111111010101010000
'12:34.200',-0.065,0.22,11111111111010101010000
'12:34.203',-0.07,0.24,11111111111010010000000
'12:34.206',-0.045,0.245,11111111111100010100000
'12:34.208',-0.045,0.235,11111111111100010100000
'12:34.211',-0.055,0.235,11111111111011011110000
'12:34.214',-0.075,0.205,11111111111001110110000
'12:34.217',-0.07,0.21,11111111111010010000000
'12:34.219',-0.055,0.25,11111111111011011110000
'12:34.222',-0.035,0.24,11111111111101001000000
'12:34.225',-0.035,0.22,11111111111101001000000
'12:34.228',-0.045,0.215,11111111111100010100000
'12:34.231',-0.055,0.205,11111111111011011110000
'12:34.233',-0.07,0.215,11111111111010010000000
'12:34.236',-0.065,0.23,11111111111010101010000
'12:34.239',-0.055,0.245,11111111111011011110000
'12:34.242',-0.03,0.24,11111111111101100010000
'12:34.244',-0.04,0.22,11111111111100101110000
'12:34.247',-0.06,0.21,11111111111011000100000
'12:34.250',-0.06,0.22,11111111111011000100000
'12:34.253',-0.04,0.235,11111111111100101110000
'12:34.256',-0.03,0.23,11111111111101100010000
'12:34.258',-0.035,0.23,11111111111101001000000
'12:34.261',-0.04,0.215,11111111111100101110000
'12:34.264',-0.05,0.205,11111111111011111000000
'12:34.267',-0.06,0.225,11111111111011000100000
'12:34.269',-0.04,0.23,11111111111100101110000
'12:34.272',-0.025,0.24,11111111111101111100000
'12:34.275',-0.04,0.225,11111111111100101110000
'12:34.278',-0.05,0.21,11111111111011111000000
'12:34.281',-0.06,0.21,11111111111011000100000
'12:34.283',-0.055,0.21,11111111111011011110000
'12:34.286',-0.035,0.225,11111111111101001000000
'12:34.289',-0.025,0.23,11111111111101111100000
'12:34.292',-0.01,0.22,11111111111111001010000
'12:34.294',-0.01,0.195,11111111111111001010000
'12:34.297',-0.035,0.2,11111111111101001000000
'12:34.300',-0.03,0.2,11111111111101100010000
'12:34.303',-0.03,0.21,11111111111101100010000
'12:34.306',-0.005,0.225,11111111111111100100000
'12:34.308',0.015,0.22,00000000000001001110000
'12:34.311',0,0.21,00000000000000000000000
'12:34.314',-0.005,0.205,11111111111111100100000
'12:34.317',0.005,0.205,00000000000000011010000
'12:34.319',0.025,0.215,00000000000010000010000
'12:34.322',0.05,0.24,00000000000100000110000
'12:34.325',0.045,0.215,00000000000011101010000
'12:34.328',0.02,0.195,00000000000001101000000
'12:34.331',-0.01,0.18,11111111111111001010000
'12:34.333',-0.035,0.195,11111111111101001000000
'12:34.336',-0.04,0.2,11111111111100101110000
'12:34.339',-0.035,0.225,11111111111101001000000
'12:34.342',-0.025,0.225,11111111111101111100000
'12:34.344',-0.04,0.215,11111111111100101110000
'12:34.347',-0.045,0.205,11111111111100010100000
'12:34.350',-0.055,0.23,11111111111011011110000
'12:34.353',-0.045,0.26,11111111111100010100000
'12:34.356',-0.045,0.285,11111111111100010100000
'12:34.358',-0.04,0.26,11111111111100101110000
'12:34.361',-0.07,0.22,11111111111010010000000
'12:34.364',-0.1,0.19,11111111110111110010000
'12:34.367',-0.14,0.175,11111111110100100000000
'12:34.369',-0.145,0.17,11111111110100000110000
'12:34.372',-0.135,0.17,11111111110100111100000
'12:34.375',-0.16,0.14,11111111110010111000000
'12:34.378',-0.165,0.13,11111111110010011110000
'12:34.381',-0.195,0.115,11111111110000000000000
'12:34.383',-0.21,0.115,11111111101110110010000
'12:34.386',-0.205,0.13,11111111101111001100000
'12:34.389',-0.21,0.14,11111111101110110010000
'12:34.392',-0.215,0.125,11111111101110011000000
'12:34.394',-0.205,0.125,11111111101111001100000
'12:34.397',-0.21,0.115,11111111101110110010000
'12:34.400',-0.21,0.12,11111111101110110010000
'12:34.403',-0.205,0.14,11111111101111001100000
'12:34.406',-0.2,0.145,11111111101111100110000
'12:34.408',-0.18,0.135,11111111110001010000000
'12:34.411',-0.205,0.13,11111111101111001100000
'12:34.414',-0.2,0.13,11111111101111100110000
'12:34.417',-0.195,0.11,11111111110000000000000
'12:34.419',-0.18,0.125,11111111110001010000000
'12:34.422',-0.16,0.145,11111111110010111000000
'12:34.425',-0.165,0.145,11111111110010011110000
'12:34.428',-0.17,0.135,11111111110010000100000
'12:34.431',-0.185,0.12,11111111110000110110000
'12:34.433',-0.18,0.13,11111111110001010000000
'12:34.436',-0.17,0.13,11111111110010000100000
'12:34.439',-0.155,0.165,11111111110011010010000
'12:34.442',-0.145,0.14,11111111110100000110000
'12:34.444',-0.15,0.125,11111111110011101100000
'12:34.447',-0.17,0.105,11111111110010000100000
'12:34.450',-0.17,0.125,11111111110010000100000
'12:34.453',-0.155,0.14,11111111110011010010000
'12:34.456',-0.15,0.15,11111111110011101100000
'12:34.458',-0.15,0.145,11111111110011101100000
'12:34.461',-0.15,0.135,11111111110011101100000
'12:34.464',-0.16,0.12,11111111110010111000000
'12:34.467',-0.15,0.115,11111111110011101100000
'12:34.469',-0.145,0.135,11111111110100000110000
'12:34.472',-0.14,0.155,11111111110100100000000
'12:34.475',-0.125,0.155,11111111110101110000000
'12:34.478',-0.14,0.13,11111111110100100000000
'12:34.481',-0.15,0.13,11111111110011101100000
'12:34.483',-0.135,0.14,11111111110100111100000
'12:34.486',-0.135,0.16,11111111110100111100000
'12:34.489',-0.13,0.195,11111111110101010110000
'12:34.492',-0.155,0.215,11111111110011010010000
'12:34.494',-0.19,0.21,11111111110000011010000
'12:34.497',-0.225,0.195,11111111101101100100000
'12:34.500',-0.265,0.18,11111111101010010010000
'12:34.503',-0.3,0.15,11111111100111011010000
'12:34.506',-0.26,0.07,11111111101010101100000
'12:34.508',-0.2,-0.075,11111111101111100110000
'12:34.511',-0.11,-0.25,11111111110110111110000
'12:34.514',-0.005,-0.37,11111111111111100100000
'12:34.517',0.16,-0.465,00000000001101000110000
'12:34.519',0.37,-0.515,00000000011110010010000
'12:34.522',0.56,-0.53,00000000101101111000000
'12:34.525',0.685,-0.5,00000000111000000110000
'12:34.528',0.695,-0.45,00000000111000111010000
'12:34.531',0.57,-0.35,00000000101110101100000
'12:34.533',0.39,-0.22,00000000011111111100000
'12:34.536',0.21,-0.08,00000000010001001100000
'12:34.539',0.11,0.055,00000000001001000000000
'12:34.542',0.055,0.14,00000000000100100000000
'12:34.544',0.05,0.19,00000000000100000110000
'12:34.547',0.035,0.195,00000000000010110110000
'12:34.550',0,0.19,00000000000000000000000
'12:34.553',-0.005,0.2,11111111111111100100000
'12:34.556',0.015,0.215,00000000000001001110000
'12:34.558',-0.01,0.21,11111111111111001010000
'12:34.561',-0.025,0.195,11111111111101111100000
'12:34.564',-0.045,0.18,11111111111100010100000
'12:34.567',-0.045,0.19,11111111111100010100000
'12:34.569',-0.03,0.195,11111111111101100010000
'12:34.572',-0.015,0.21,11111111111110110000000
'12:34.575',-0.01,0.18,11111111111111001010000
'12:34.578',-0.02,0.155,11111111111110010110000
'12:34.581',-0.035,0.145,11111111111101001000000
'12:34.583',-0.045,0.15,11111111111100010100000
'12:34.586',-0.035,0.16,11111111111101001000000
'12:34.589',-0.04,0.165,11111111111100101110000
'12:34.592',-0.04,0.17,11111111111100101110000
'12:34.594',-0.04,0.14,11111111111100101110000
'12:34.597',-0.04,0.13,11111111111100101110000
'12:34.600',-0.045,0.145,11111111111100010100000
'12:34.603',-0.065,0.15,11111111111010101010000
'12:34.606',-0.03,0.17,11111111111101100010000
'12:34.608',-0.06,0.175,11111111111011000100000
'12:34.611',-0.085,0.165,11111111111001000010000
'12:34.614',-0.12,0.165,11111111110110001010000
'12:34.617',-0.125,0.185,11111111110101110000000
'12:34.619',-0.115,0.205,11111111110110100100000
'12:34.622',-0.095,0.23,11111111111000001100000
'12:34.625',-0.105,0.22,11111111110111011000000
'12:34.628',-0.12,0.215,11111111110110001010000
'12:34.631',-0.125,0.19,11111111110101110000000
'12:34.633',-0.13,0.195,11111111110101010110000
'12:34.636',-0.105,0.19,11111111110111011000000
'12:34.639',-0.095,0.205,11111111111000001100000
'12:34.642',-0.1,0.18,11111111110111110010000
'12:34.644',-0.135,0.185,11111111110100111100000
'12:34.647',-0.14,0.15,11111111110100100000000
'12:34.650',-0.165,0.155,11111111110010011110000
'12:34.653',-0.15,0.155,11111111110011101100000
'12:34.656',-0.14,0.16,11111111110100100000000
'12:34.658',-0.13,0.15,11111111110101010110000
'12:34.661',-0.14,0.135,11111111110100100000000
'12:34.664',-0.165,0.12,11111111110010011110000
'12:34.667',-0.17,0.135,11111111110010000100000
'12:34.669',-0.17,0.135,11111111110010000100000
'12:34.672',-0.155,0.15,11111111110011010010000
'12:34.675',-0.165,0.14,11111111110010011110000
'12:34.678',-0.185,0.115,11111111110000110110000
'12:34.681',-0.205,0.115,11111111101111001100000
'12:34.683',-0.215,0.13,11111111101110011000000
'12:34.686',-0.205,0.14,11111111101111001100000
'12:34.689',-0.185,0.145,11111111110000110110000
'12:34.692',-0.18,0.145,11111111110001010000000
'12:34.694',-0.185,0.14,11111111110000110110000
'12:34.697',-0.2,0.14,11111111101111100110000
'12:34.700',-0.2,0.155,11111111101111100110000
'12:34.703',-0.18,0.165,11111111110001010000000
'12:34.706',-0.17,0.18,11111111110010000100000
'12:34.708',-0.165,0.165,11111111110010011110000
'12:34.711',-0.185,0.135,11111111110000110110000
'12:34.714',-0.2,0.13,11111111101111100110000
'12:34.717',-0.2,0.125,11111111101111100110000
'12:34.719',-0.2,0.155,11111111101111100110000
'12:34.722',-0.185,0.17,11111111110000110110000
'12:34.725',-0.18,0.155,11111111110001010000000
'12:34.728',-0.195,0.125,11111111110000000000000
'12:34.731',-0.21,0.12,11111111101110110010000
'12:34.733',-0.22,0.13,11111111101101111110000
'12:34.736',-0.21,0.14,11111111101110110010000
'12:34.739',-0.2,0.135,11111111101111100110000
'12:34.742',-0.215,0.145,11111111101110011000000
'12:34.744',-0.215,0.135,11111111101110011000000
'12:34.747',-0.225,0.125,11111111101101100100000
'12:34.750',-0.23,0.125,11111111101101001010000
'12:34.753',-0.235,0.14,11111111101100101110000
'12:34.756',-0.23,0.155,11111111101101001010000
'12:34.758',-0.23,0.13,11111111101101001010000
'12:34.761',-0.245,0.12,11111111101011111010000
'12:34.764',-0.255,0.125,11111111101011000110000
'12:34.767',-0.26,0.135,11111111101010101100000
'12:34.769',-0.25,0.14,11111111101011100000000
'12:34.772',-0.235,0.15,11111111101100101110000
'12:34.775',-0.24,0.14,11111111101100010100000
'12:34.778',-0.245,0.13,11111111101011111010000
'12:34.781',-0.27,0.13,11111111101001111000000
'12:34.783',-0.255,0.15,11111111101011000110000
'12:34.786',-0.24,0.15,11111111101100010100000
'12:34.789',-0.215,0.17,11111111101110011000000
'12:34.792',-0.205,0.165,11111111101111001100000
'12:34.794',-0.22,0.15,11111111101101111110000
'12:34.797',-0.24,0.135,11111111101100010100000
'12:34.800',-0.235,0.145,11111111101100101110000
'12:34.803',-0.225,0.15,11111111101101100100000
'12:34.806',-0.21,0.165,11111111101110110010000
'12:34.808',-0.215,0.16,11111111101110011000000
'12:34.811',-0.215,0.135,11111111101110011000000
'12:34.814',-0.225,0.14,11111111101101100100000
'12:34.817',-0.22,0.16,11111111101101111110000
'12:34.819',-0.195,0.18,11111111110000000000000
'12:34.822',-0.19,0.175,11111111110000011010000
'12:34.825',-0.195,0.16,11111111110000000000000
'12:34.828',-0.2,0.155,11111111101111100110000
'12:34.831',-0.225,0.145,11111111101101100100000
'12:34.833',-0.225,0.165,11111111101101100100000
'12:34.836',-0.215,0.18,11111111101110011000000
'12:34.839',-0.215,0.2,11111111101110011000000
'12:34.842',-0.235,0.19,11111111101100101110000
'12:34.844',-0.235,0.18,11111111101100101110000
'12:34.847',-0.25,0.155,11111111101011100000000
'12:34.850',-0.265,0.15,11111111101010010010000
'12:34.853',-0.245,0.16,11111111101011111010000
'12:34.856',-0.22,0.175,11111111101101111110000
'12:34.858',-0.24,0.165,11111111101100010100000
'12:34.861',-0.25,0.155,11111111101011100000000
'12:34.864',-0.25,0.145,11111111101011100000000
'12:34.867',-0.25,0.15,11111111101011100000000
'12:34.869',-0.23,0.145,11111111101101001010000
'12:34.872',-0.2,0.155,11111111101111100110000
'12:34.875',-0.2,0.155,11111111101111100110000
'12:34.878',-0.21,0.145,11111111101110110010000
'12:34.881',-0.225,0.135,11111111101101100100000
'12:34.883',-0.225,0.16,11111111101101100100000
'12:34.886',-0.205,0.21,11111111101111001100000
'12:34.889',-0.175,0.27,11111111110001101010000
'12:34.892',-0.165,0.295,11111111110010011110000
'12:34.894',-0.165,0.285,11111111110010011110000
'12:34.897',-0.195,0.27,11111111110000000000000
'12:34.900',-0.215,0.235,11111111101110011000000
'12:34.903',-0.215,0.175,11111111101110011000000
'12:34.906',-0.205,0.065,11111111101111001100000
'12:34.908',-0.165,-0.125,11111111110010011110000
'12:34.911',-0.07,-0.335,11111111111010010000000
'12:34.914',0.065,-0.535,00000000000101010100000
'12:34.917',0.23,-0.665,00000000010010110100000
'12:34.919',0.41,-0.71,00000000100001100100000
'12:34.922',0.535,-0.685,00000000101011110100000
'12:34.925',0.575,-0.615,00000000101111000110000
'12:34.928',0.485,-0.55,00000000100111101110000
'12:34.931',0.275,-0.46,00000000010110100000000
'12:34.933',0.035,-0.33,00000000000010110110000
'12:34.936',-0.13,-0.2,11111111110101010110000
'12:34.939',-0.195,-0.065,11111111110000000000000
'12:34.942',-0.19,0.025,11111111110000011010000
'12:34.944',-0.18,0.07,11111111110001010000000
'12:34.947',-0.18,0.095,11111111110001010000000
'12:34.950',-0.185,0.115,11111111110000110110000
'12:34.953',-0.185,0.125,11111111110000110110000
'12:34.956',-0.17,0.13,11111111110010000100000
'12:34.958',-0.17,0.13,11111111110010000100000
'12:34.961',-0.195,0.105,11111111110000000000000
'12:34.964',-0.225,0.1,11111111101101100100000
'12:34.967',-0.235,0.1,11111111101100101110000
'12:34.969',-0.22,0.115,11111111101101111110000
'12:34.972',-0.205,0.12,11111111101111001100000
'12:34.975',-0.21,0.115,11111111101110110010000
'12:34.978',-0.22,0.095,11111111101101111110000
'12:34.981',-0.235,0.07,11111111101100101110000
'12:34.983',-0.245,0.075,11111111101011111010000
'12:34.986',-0.22,0.095,11111111101101111110000
'12:34.989',-0.205,0.11,11111111101111001100000
'12:34.992',-0.225,0.1,11111111101101100100000
'12:34.994',-0.225,0.08,11111111101101100100000
'12:34.997',-0.235,0.07,11111111101100101110000
'12:35.000',-0.235,0.085,11111111101100101110000
'12:35.003',-0.23,0.095,11111111101101001010000
'12:35.006',-0.235,0.11,11111111101100101110000
'12:35.008',-0.21,0.095,11111111101110110010000
'12:35.011',-0.225,0.085,11111111101101100100000
'12:35.014',-0.235,0.065,11111111101100101110000
'12:35.017',-0.225,0.085,11111111101101100100000
'12:35.019',-0.225,0.1,11111111101101100100000
'12:35.022',-0.215,0.105,11111111101110011000000
'12:35.025',-0.215,0.095,11111111101110011000000
'12:35.028',-0.23,0.075,11111111101101001010000
'12:35.031',-0.25,0.055,11111111101011100000000
'12:35.033',-0.27,0.055,11111111101001111000000
'12:35.036',-0.285,0.07,11111111101000101000000
'12:35.039',-0.29,0.07,11111111101000001110000
'12:35.042',-0.31,0.075,11111111100110100110000
'12:35.044',-0.325,0.06,11111111100101011000000
'12:35.047',-0.345,0.06,11111111100011101110000
'12:35.050',-0.335,0.07,11111111100100100010000
'12:35.053',-0.335,0.07,11111111100100100010000
'12:35.056',-0.33,0.085,11111111100100111100000
'12:35.058',-0.34,0.085,11111111100100001000000
'12:35.061',-0.355,0.065,11111111100010111010000
'12:35.064',-0.38,0.04,11111111100000110110000
'12:35.067',-0.36,0.06,11111111100010100000000
'12:35.069',-0.35,0.07,11111111100011010100000
'12:35.072',-0.33,0.11,11111111100100111100000
'12:35.075',-0.315,0.12,11111111100110001100000
'12:35.078',-0.29,0.125,11111111101000001110000
'12:35.081',-0.29,0.15,11111111101000001110000
'12:35.083',-0.27,0.17,11111111101001111000000
'12:35.086',-0.235,0.205,11111111101100101110000
'12:35.089',-0.19,0.22,11111111110000011010000
'12:35.092',-0.16,0.22,11111111110010111000000
'12:35.094',-0.15,0.19,11111111110011101100000
'12:35.097',-0.145,0.195,11111111110100000110000
'12:35.100',-0.14,0.205,11111111110100100000000
'12:35.103',-0.11,0.23,11111111110110111110000
'12:35.106',-0.105,0.24,11111111110111011000000
'12:35.108',-0.115,0.235,11111111110110100100000
'12:35.111',-0.125,0.225,11111111110101110000000
'12:35.114',-0.14,0.22,11111111110100100000000
'12:35.117',-0.13,0.23,11111111110101010110000
'12:35.119',-0.115,0.245,11111111110110100100000
'12:35.122',-0.1,0.24,11111111110111110010000
'12:35.125',-0.075,0.215,11111111111001110110000
'12:35.128',-0.08,0.21,11111111111001011100000
'12:35.131',-0.105,0.21,11111111110111011000000
'12:35.133',-0.12,0.195,11111111110110001010000
'12:35.136',-0.135,0.21,11111111110100111100000
'12:35.139',-0.125,0.2,11111111110101110000000
'12:35.142',-0.12,0.19,11111111110110001010000
'12:35.144',-0.135,0.18,11111111110100111100000
'12:35.147',-0.15,0.165,11111111110011101100000
'12:35.150',-0.175,0.165,11111111110001101010000
'12:35.153',-0.16,0.19,11111111110010111000000
'12:35.156',-0.155,0.185,11111111110011010010000
'12:35.158',-0.155,0.165,11111111110011010010000
'12:35.161',-0.17,0.15,11111111110010000100000
'12:35.164',-0.205,0.16,11111111101111001100000
'12:35.167',-0.205,0.155,11111111101111001100000
'12:35.169',-0.225,0.165,11111111101101100100000
'12:35.172',-0.215,0.16,11111111101110011000000
'12:35.175',-0.23,0.155,11111111101101001010000
'12:35.178',-0.245,0.125,11111111101011111010000
'12:35.181',-0.285,0.115,11111111101000101000000
'12:35.183',-0.275,0.125,11111111101001011110000
'12:35.186',-0.285,0.135,11111111101000101000000
'12:35.189',-0.27,0.14,11111111101001111000000
'12:35.192',-0.27,0.135,11111111101001111000000
'12:35.194',-0.265,0.115,11111111101010010010000
'12:35.197',-0.29,0.1,11111111101000001110000
'12:35.200',-0.295,0.11,11111111100111110100000
'12:35.203',-0.285,0.115,11111111101000101000000
'12:35.206',-0.265,0.14,11111111101010010010000
'12:35.208',-0.25,0.135,11111111101011100000000
'12:35.211',-0.25,0.115,11111111101011100000000
'12:35.214',-0.27,0.1,11111111101001111000000
'12:35.217',-0.275,0.1,11111111101001011110000
'12:35.219',-0.27,0.115,11111111101001111000000
'12:35.222',-0.26,0.125,11111111101010101100000
'12:35.225',-0.26,0.1,11111111101010101100000
'12:35.228',-0.275,0.08,11111111101001011110000
'12:35.231',-0.27,0.075,11111111101001111000000
'12:35.233',-0.275,0.075,11111111101001011110000
'12:35.236',-0.255,0.095,11111111101011000110000
'12:35.239',-0.255,0.11,11111111101011000110000
'12:35.242',-0.255,0.105,11111111101011000110000
'12:35.244',-0.27,0.095,11111111101001111000000
'12:35.247',-0.285,0.07,11111111101000101000000
'12:35.250',-0.285,0.07,11111111101000101000000
'12:35.253',-0.285,0.07,11111111101000101000000
'12:35.256',-0.285,0.07,11111111101000101000000
'12:35.258',-0.285,0.06,11111111101000101000000
'12:35.261',-0.31,0.035,11111111100110100110000
'12:35.264',-0.345,0.04,11111111100011101110000
'12:35.267',-0.36,0.085,11111111100010100000000
'12:35.269',-0.355,0.135,11111111100010111010000
'12:35.272',-0.36,0.165,11111111100010100000000
'12:35.275',-0.4,0.135,11111111011111001110000
'12:35.278',-0.455,0.05,11111111011010101110000
'12:35.281',-0.5,-0.05,11111111010111000010000
'12:35.283',-0.505,-0.185,11111111010110101000000
'12:35.286',-0.47,-0.315,11111111011001011110000
'12:35.289',-0.385,-0.465,11111111100000011100000
'12:35.292',-0.23,-0.575,11111111101101001010000
'12:35.294',-0.02,-0.665,11111111111110010110000
'12:35.297',0.155,-0.655,00000000001100101100000
'12:35.300',0.28,-0.58,00000000010110111100000
'12:35.303',0.25,-0.46,00000000010100011110000
'12:35.306',0.1,-0.325,00000000001000001100000
'12:35.308',-0.1,-0.21,11111111110111110010000
'12:35.311',-0.275,-0.11,11111111101001011110000
'12:35.314',-0.345,0,11111111100011101110000
'12:35.317',-0.32,0.125,11111111100101110010000
'12:35.319',-0.24,0.195,11111111101100010100000
'12:35.322',-0.16,0.235,11111111110010111000000
'12:35.325',-0.12,0.205,11111111110110001010000
'12:35.328',-0.13,0.175,11111111110101010110000
'12:35.331',-0.165,0.16,11111111110010011110000
'12:35.333',-0.19,0.18,11111111110000011010000
'12:35.336',-0.175,0.195,11111111110001101010000
'12:35.339',-0.145,0.215,11111111110100000110000
'12:35.342',-0.135,0.17,11111111110100111100000
'12:35.344',-0.145,0.155,11111111110100000110000
'12:35.347',-0.165,0.135,11111111110010011110000
'12:35.350',-0.135,0.135,11111111110100111100000
'12:35.353',-0.125,0.15,11111111110101110000000
'12:35.356',-0.1,0.155,11111111110111110010000
'12:35.358',-0.11,0.14,11111111110110111110000
'12:35.361',-0.105,0.12,11111111110111011000000
'12:35.364',-0.11,0.11,11111111110110111110000
'12:35.367',-0.12,0.12,11111111110110001010000
'12:35.369',-0.13,0.13,11111111110101010110000
'12:35.372',-0.11,0.145,11111111110110111110000
'12:35.375',-0.12,0.14,11111111110110001010000
'12:35.378',-0.125,0.12,11111111110101110000000
'12:35.381',-0.14,0.115,11111111110100100000000
'12:35.383',-0.135,0.11,11111111110100111100000
'12:35.386',-0.13,0.115,11111111110101010110000
'12:35.389',-0.12,0.12,11111111110110001010000
'12:35.392',-0.125,0.115,11111111110101110000000
'12:35.394',-0.13,0.11,11111111110101010110000
'12:35.397',-0.145,0.105,11111111110100000110000
'12:35.400',-0.145,0.11,11111111110100000110000
'12:35.403',-0.145,0.11,11111111110100000110000
'12:35.406',-0.13,0.105,11111111110101010110000
'12:35.408',-0.125,0.09,11111111110101110000000
'12:35.411',-0.13,0.08,11111111110101010110000
'12:35.414',-0.135,0.06,11111111110100111100000
'12:35.417',-0.15,0.065,11111111110011101100000
'12:35.419',-0.17,0.075,11111111110010000100000
'12:35.422',-0.15,0.09,11111111110011101100000
'12:35.425',-0.17,0.085,11111111110010000100000
'12:35.428',-0.175,0.07,11111111110001101010000
'12:35.431',-0.18,0.065,11111111110001010000000
'12:35.433',-0.185,0.07,11111111110000110110000
'12:35.436',-0.19,0.09,11111111110000011010000
'12:35.439',-0.19,0.1,11111111110000011010000
'12:35.442',-0.195,0.09,11111111110000000000000
'12:35.444',-0.215,0.08,11111111101110011000000
'12:35.447',-0.235,0.055,11111111101100101110000
'12:35.450',-0.25,0.055,11111111101011100000000
'12:35.453',-0.265,0.06,11111111101010010010000
'12:35.456',-0.245,0.06,11111111101011111010000
'12:35.458',-0.285,0.06,11111111101000101000000
'12:35.461',-0.285,0.045,11111111101000101000000
'12:35.464',-0.3,0.035,11111111100111011010000
'12:35.467',-0.32,0.065,11111111100101110010000
'12:35.469',-0.32,0.06,11111111100101110010000
'12:35.472',-0.33,0.075,11111111100100111100000
'12:35.475',-0.35,0.055,11111111100011010100000
'12:35.478',-0.38,0.04,11111111100000110110000
'12:35.481',-0.41,0.03,11111111011110011010000
'12:35.483',-0.425,0.04,11111111011101001010000
'12:35.486',-0.41,0.075,11111111011110011010000
'12:35.489',-0.415,0.09,11111111011110000000000
'12:35.492',-0.425,0.105,11111111011101001010000
'12:35.494',-0.44,0.095,11111111011011111100000
'12:35.497',-0.455,0.095,11111111011010101110000
'12:35.500',-0.45,0.12,11111111011011001000000
'12:35.503',-0.435,0.145,11111111011100010110000
'12:35.506',-0.41,0.18,11111111011110011010000
'12:35.508',-0.42,0.18,11111111011101100100000
'12:35.511',-0.41,0.17,11111111011110011010000
'12:35.514',-0.39,0.165,11111111100000000010000
'12:35.517',-0.375,0.17,11111111100001010000000
'12:35.519',-0.36,0.195,11111111100010100000000
'12:35.522',-0.34,0.22,11111111100100001000000
'12:35.525',-0.34,0.215,11111111100100001000000
'12:35.528',-0.35,0.195,11111111100011010100000
'12:35.531',-0.36,0.19,11111111100010100000000
'12:35.533',-0.355,0.19,11111111100010111010000
'12:35.536',-0.355,0.195,11111111100010111010000
'12:35.539',-0.33,0.205,11111111100100111100000
'12:35.542',-0.315,0.18,11111111100110001100000
'12:35.544',-0.315,0.15,11111111100110001100000
'12:35.547',-0.33,0.14,11111111100100111100000
'12:35.550',-0.33,0.155,11111111100100111100000
'12:35.553',-0.33,0.17,11111111100100111100000
'12:35.556',-0.305,0.18,11111111100111000000000
'12:35.558',-0.305,0.175,11111111100111000000000
'12:35.561',-0.305,0.15,11111111100111000000000
'12:35.564',-0.305,0.135,11111111100111000000000
'12:35.567',-0.31,0.14,11111111100110100110000
'12:35.569',-0.285,0.15,11111111101000101000000
'12:35.572',-0.255,0.16,11111111101011000110000
'12:35.575',-0.225,0.14,11111111101101100100000
'12:35.578',-0.225,0.12,11111111101101100100000
'12:35.581',-0.235,0.095,11111111101100101110000
'12:35.583',-0.23,0.095,11111111101101001010000
'12:35.586',-0.235,0.1,11111111101100101110000
'12:35.589',-0.21,0.115,11111111101110110010000
'12:35.592',-0.19,0.105,11111111110000011010000
'12:35.594',-0.195,0.075,11111111110000000000000
'12:35.597',-0.21,0.065,11111111101110110010000
'12:35.600',-0.195,0.07,11111111110000000000000
'12:35.603',-0.175,0.085,11111111110001101010000
'12:35.606',-0.16,0.095,11111111110010111000000
'12:35.608',-0.16,0.08,11111111110010111000000
'12:35.611',-0.155,0.07,11111111110011010010000
'12:35.614',-0.17,0.07,11111111110010000100000
'12:35.617',-0.165,0.08,11111111110010011110000
'12:35.619',-0.155,0.09,11111111110011010010000
'12:35.622',-0.16,0.085,11111111110010111000000
'12:35.625',-0.155,0.08,11111111110011010010000
'12:35.628',-0.145,0.09,11111111110100000110000
'12:35.631',-0.16,0.1,11111111110010111000000
'12:35.633',-0.17,0.145,11111111110010000100000
'12:35.636',-0.175,0.17,11111111110001101010000
'12:35.639',-0.21,0.165,11111111101110110010000
'12:35.642',-0.24,0.09,11111111101100010100000
'12:35.644',-0.27,-0.01,11111111101001111000000
'12:35.647',-0.27,-0.17,11111111101001111000000
'12:35.650',-0.21,-0.315,11111111101110110010000
'12:35.653',-0.08,-0.48,11111111111001011100000
'12:35.656',0.085,-0.595,00000000000110111100000
'12:35.658',0.295,-0.675,00000000011000001010000
'12:35.661',0.445,-0.695,00000000100100011100000
'12:35.664',0.56,-0.675,00000000101101111000000
'12:35.667',0.605,-0.585,00000000110001100010000
'12:35.669',0.57,-0.48,00000000101110101100000
'12:35.672',0.39,-0.37,00000000011111111100000
'12:35.675',0.16,-0.265,00000000001101000110000
'12:35.678',-0.025,-0.16,11111111111101111100000
'12:35.681',-0.11,-0.055,11111111110110111110000
'12:35.683',-0.12,0.045,11111111110110001010000
'12:35.686',-0.095,0.12,11111111111000001100000
'12:35.689',-0.075,0.14,11111111111001110110000
'12:35.692',-0.085,0.12,11111111111001000010000
'12:35.694',-0.135,0.09,11111111110100111100000
'12:35.697',-0.175,0.095,11111111110001101010000
'12:35.700',-0.195,0.08,11111111110000000000000
'12:35.703',-0.195,0.075,11111111110000000000000
'12:35.706',-0.215,0.085,11111111101110011000000
'12:35.708',-0.21,0.065,11111111101110110010000
'12:35.711',-0.245,0.045,11111111101011111010000
'12:35.714',-0.265,0.03,11111111101010010010000
'12:35.717',-0.31,0.04,11111111100110100110000
'12:35.719',-0.285,0.06,11111111101000101000000
'12:35.722',-0.275,0.08,11111111101001011110000
'12:35.725',-0.285,0.065,11111111101000101000000
'12:35.728',-0.3,0.04,11111111100111011010000
'12:35.731',-0.305,0.035,11111111100111000000000
'12:35.733',-0.32,0.02,11111111100101110010000
'12:35.736',-0.315,0.035,11111111100110001100000
'12:35.739',-0.305,0.055,11111111100111000000000
'12:35.742',-0.29,0.065,11111111101000001110000
'12:35.744',-0.29,0.065,11111111101000001110000
'12:35.747',-0.3,0.09,11111111100111011010000
'12:35.750',-0.265,0.13,11111111101010010010000
'12:35.753',-0.22,0.155,11111111101101111110000
'12:35.756',-0.175,0.21,11111111110001101010000
'12:35.758',-0.15,0.23,11111111110011101100000
'12:35.761',-0.145,0.24,11111111110100000110000
'12:35.764',-0.12,0.235,11111111110110001010000
'12:35.767',-0.12,0.23,11111111110110001010000
'12:35.769',-0.1,0.225,11111111110111110010000
'12:35.772',-0.09,0.23,11111111111000101000000
'12:35.775',-0.075,0.215,11111111111001110110000
'12:35.778',-0.08,0.2,11111111111001011100000
'12:35.781',-0.085,0.175,11111111111001000010000
'12:35.783',-0.075,0.17,11111111111001110110000
'12:35.786',-0.055,0.185,11111111111011011110000
'12:35.789',-0.04,0.19,11111111111100101110000
'12:35.792',-0.055,0.19,11111111111011011110000
'12:35.794',-0.06,0.185,11111111111011000100000
'12:35.797',-0.065,0.165,11111111111010101010000
'12:35.800',-0.055,0.17,11111111111011011110000
'12:35.803',-0.04,0.185,11111111111100101110000
'12:35.806',-0.025,0.19,11111111111101111100000
'12:35.808',-0.04,0.18,11111111111100101110000
'12:35.811',-0.045,0.18,11111111111100010100000
'12:35.814',-0.06,0.165,11111111111011000100000
'12:35.817',-0.05,0.17,11111111111011111000000
'12:35.819',-0.035,0.175,11111111111101001000000
'12:35.822',-0.015,0.185,11111111111110110000000
'12:35.825',-0.015,0.175,11111111111110110000000
'12:35.828',-0.04,0.155,11111111111100101110000
'12:35.831',-0.065,0.16,11111111111010101010000
'12:35.833',-0.07,0.165,11111111111010010000000
'12:35.836',-0.05,0.175,11111111111011111000000
'12:35.839',-0.035,0.185,11111111111101001000000
'12:35.842',-0.03,0.175,11111111111101100010000
'12:35.844',-0.045,0.15,11111111111100010100000
'12:35.847',-0.07,0.14,11111111111010010000000
'12:35.850',-0.085,0.15,11111111111001000010000
'12:35.853',-0.07,0.175,11111111111010010000000
'12:35.856',-0.055,0.18,11111111111011011110000
'12:35.858',-0.08,0.17,11111111111001011100000
'12:35.861',-0.08,0.155,11111111111001011100000
'12:35.864',-0.1,0.145,11111111110111110010000
'12:35.867',-0.115,0.15,11111111110110100100000
'12:35.869',-0.105,0.16,11111111110111011000000
'12:35.872',-0.105,0.16,11111111110111011000000
'12:35.875',-0.11,0.155,11111111110110111110000
'12:35.878',-0.135,0.135,11111111110100111100000
'12:35.881',-0.165,0.12,11111111110010011110000
'12:35.883',-0.17,0.125,11111111110010000100000
'12:35.886',-0.175,0.155,11111111110001101010000
'12:35.889',-0.17,0.165,11111111110010000100000
'12:35.892',-0.16,0.165,11111111110010111000000
'12:35.894',-0.18,0.155,11111111110001010000000
'12:35.897',-0.195,0.13,11111111110000000000000
'12:35.900',-0.205,0.14,11111111101111001100000
'12:35.903',-0.19,0.155,11111111110000011010000
'12:35.906',-0.19,0.16,11111111110000011010000
'12:35.908',-0.205,0.16,11111111101111001100000
'12:35.911',-0.21,0.15,11111111101110110010000
'12:35.914',-0.22,0.14,11111111101101111110000
'12:35.917',-0.225,0.14,11111111101101100100000
'12:35.919',-0.215,0.15,11111111101110011000000
'12:35.922',-0.21,0.155,11111111101110110010000
'12:35.925',-0.195,0.165,11111111110000000000000
'12:35.928',-0.22,0.13,11111111101101111110000
'12:35.931',-0.23,0.13,11111111101101001010000
'12:35.933',-0.245,0.125,11111111101011111010000
'12:35.936',-0.25,0.145,11111111101011100000000
'12:35.939',-0.23,0.145,11111111101101001010000
'12:35.942',-0.22,0.135,11111111101101111110000
'12:35.944',-0.23,0.115,11111111101101001010000
'12:35.947',-0.255,0.095,11111111101011000110000
'12:35.950',-0.255,0.095,11111111101011000110000
'12:35.953',-0.25,0.115,11111111101011100000000
'12:35.956',-0.24,0.12,11111111101100010100000
'12:35.958',-0.255,0.09,11111111101011000110000
'12:35.961',-0.265,0.085,11111111101010010010000
'12:35.964',-0.28,0.075,11111111101001000010000
'12:35.967',-0.3,0.085,11111111100111011010000
'12:35.969',-0.29,0.09,11111111101000001110000
'12:35.972',-0.295,0.105,11111111100111110100000
'12:35.975',-0.31,0.095,11111111100110100110000
'12:35.978',-0.325,0.075,11111111100101011000000
'12:35.981',-0.33,0.07,11111111100100111100000
'12:35.983',-0.315,0.055,11111111100110001100000
'12:35.986',-0.305,0.065,11111111100111000000000
'12:35.989',-0.29,0.065,11111111101000001110000
'12:35.992',-0.3,0.065,11111111100111011010000
'12:35.994',-0.31,0.075,11111111100110100110000
'12:35.997',-0.315,0.1,11111111100110001100000
'12:36.000',-0.285,0.14,11111111101000101000000
'12:36.003',-0.24,0.17,11111111101100010100000
'12:36.006',-0.2,0.21,11111111101111100110000
'12:36.008',-0.165,0.215,11111111110010011110000
'12:36.011',-0.155,0.215,11111111110011010010000
'12:36.014',-0.135,0.205,11111111110100111100000
'12:36.017',-0.115,0.22,11111111110110100100000
'12:36.019',-0.07,0.23,11111111111010010000000
'12:36.022',-0.045,0.22,11111111111100010100000
'12:36.025',-0.03,0.175,11111111111101100010000
'12:36.028',-0.045,0.16,11111111111100010100000
'12:36.031',-0.05,0.15,11111111111011111000000
'12:36.033',-0.055,0.16,11111111111011011110000
'12:36.036',-0.055,0.165,11111111111011011110000
'12:36.039',-0.04,0.17,11111111111100101110000
'12:36.042',-0.03,0.155,11111111111101100010000
'12:36.044',-0.025,0.14,11111111111101111100000
'12:36.047',-0.04,0.12,11111111111100101110000
'12:36.050',-0.04,0.11,11111111111100101110000
'12:36.053',-0.06,0.145,11111111111011000100000
'12:36.056',-0.04,0.16,11111111111100101110000
'12:36.058',-0.05,0.13,11111111111011111000000
'12:36.061',-0.055,0.12,11111111111011011110000
'12:36.064',-0.065,0.125,11111111111010101010000
'12:36.067',-0.055,0.13,11111111111011011110000
'12:36.069',-0.04,0.135,11111111111100101110000
'12:36.072',-0.035,0.16,11111111111101001000000
'12:36.075',-0.06,0.15,11111111111011000100000
'12:36.078',-0.05,0.125,11111111111011111000000
'12:36.081',-0.06,0.12,11111111111011000100000
'12:36.083',-0.065,0.12,11111111111010101010000
'12:36.086',-0.04,0.13,11111111111100101110000
'12:36.089',-0.025,0.145,11111111111101111100000
'12:36.092',-0.035,0.13,11111111111101001000000
'12:36.094',-0.045,0.13,11111111111100010100000
'12:36.097',-0.055,0.1,11111111111011011110000
'12:36.100',-0.035,0.1,11111111111101001000000
'12:36.103',-0.03,0.125,11111111111101100010000
'12:36.106',-0.03,0.135,11111111111101100010000
'12:36.108',-0.01,0.125,11111111111111001010000
'12:36.111',-0.025,0.115,11111111111101111100000
'12:36.114',-0.03,0.11,11111111111101100010000
'12:36.117',-0.05,0.125,11111111111011111000000
'12:36.119',-0.03,0.14,11111111111101100010000
'12:36.122',-0.015,0.155,11111111111110110000000
'12:36.125',-0.005,0.15,11111111111111100100000
'12:36.128',-0.005,0.14,11111111111111100100000
'12:36.131',-0.02,0.145,11111111111110010110000
'12:36.133',-0.02,0.175,11111111111110010110000
'12:36.136',-0.025,0.215,11111111111101111100000
'12:36.139',0,0.23,00000000000000000000000
'12:36.142',-0.015,0.2,11111111111110110000000
'12:36.144',-0.03,0.145,11111111111101100010000
'12:36.147',-0.06,0.055,11111111111011000100000
'12:36.150',-0.05,-0.04,11111111111011111000000
'12:36.153',0.01,-0.15,00000000000000110100000
'12:36.156',0.12,-0.27,00000000001001110100000
'12:36.158',0.26,-0.42,00000000010101010010000
'12:36.161',0.4,-0.545,00000000100000110000000
'12:36.164',0.52,-0.595,00000000101010100110000
'12:36.167',0.64,-0.61,00000000110100011010000
'12:36.169',0.705,-0.55,00000000111001110000000
'12:36.172',0.7,-0.47,00000000111001010110000
'12:36.175',0.54,-0.365,00000000101100001110000
'12:36.178',0.285,-0.295,00000000010111010110000
'12:36.181',0.065,-0.185,00000000000101010100000
'12:36.183',-0.045,-0.08,11111111111100010100000
'12:36.186',-0.1,0.01,11111111110111110010000
'12:36.189',-0.09,0.08,11111111111000101000000
'12:36.192',-0.085,0.11,11111111111001000010000
'12:36.194',-0.095,0.105,11111111111000001100000
'12:36.197',-0.11,0.1,11111111110110111110000
'12:36.200',-0.125,0.12,11111111110101110000000
'12:36.203',-0.14,0.125,11111111110100100000000
'12:36.206',-0.16,0.145,11111111110010111000000
'12:36.208',-0.175,0.135,11111111110001101010000
'12:36.211',-0.2,0.125,11111111101111100110000
'12:36.214',-0.2,0.12,11111111101111100110000
'12:36.217',-0.2,0.115,11111111101111100110000
'12:36.219',-0.19,0.14,11111111110000011010000
'12:36.222',-0.175,0.15,11111111110001101010000
'12:36.225',-0.175,0.155,11111111110001101010000
'12:36.228',-0.17,0.15,11111111110010000100000
'12:36.231',-0.17,0.17,11111111110010000100000
'12:36.233',-0.16,0.19,11111111110010111000000
'12:36.236',-0.13,0.215,11111111110101010110000
'12:36.239',-0.085,0.235,11111111111001000010000
'12:36.242',-0.065,0.245,11111111111010101010000
'12:36.244',-0.045,0.23,11111111111100010100000
'12:36.247',-0.02,0.24,11111111111110010110000
'12:36.250',0,0.24,00000000000000000000000
'12:36.253',0.025,0.26,00000000000010000010000
'12:36.256',0.045,0.265,00000000000011101010000
'12:36.258',0.045,0.25,00000000000011101010000
'12:36.261',0.035,0.22,00000000000010110110000
'12:36.264',0.035,0.205,00000000000010110110000
'12:36.267',0.03,0.2,00000000000010011100000
'12:36.269',0.06,0.21,00000000000100111010000
'12:36.272',0.06,0.24,00000000000100111010000
'12:36.275',0.06,0.215,00000000000100111010000
'12:36.278',0.02,0.205,00000000000001101000000
'12:36.281',0.005,0.19,00000000000000011010000
'12:36.283',0.005,0.195,00000000000000011010000
'12:36.286',0.025,0.215,00000000000010000010000
'12:36.289',0.03,0.225,00000000000010011100000
'12:36.292',0.035,0.2,00000000000010110110000
'12:36.294',0.035,0.19,00000000000010110110000
'12:36.297',0.015,0.17,00000000000001001110000
'12:36.300',0.005,0.185,00000000000000011010000
'12:36.303',0.02,0.205,00000000000001101000000
'12:36.306',0.03,0.21,00000000000010011100000
'12:36.308',0.045,0.21,00000000000011101010000
'12:36.311',0.03,0.19,00000000000010011100000
'12:36.314',0.015,0.175,00000000000001001110000
'12:36.317',0.015,0.19,00000000000001001110000
'12:36.319',0.04,0.195,00000000000011010000000
'12:36.322',0.04,0.205,00000000000011010000000
'12:36.325',0.035,0.19,00000000000010110110000
'12:36.328',0.025,0.185,00000000000010000010000
'12:36.331',0.01,0.175,00000000000000110100000
'12:36.333',0.015,0.185,00000000000001001110000
'12:36.336',0.03,0.195,00000000000010011100000
'12:36.339',0.035,0.21,00000000000010110110000
'12:36.342',0.045,0.21,00000000000011101010000
'12:36.344',0.035,0.185,00000000000010110110000
'12:36.347',0.015,0.17,00000000000001001110000
'12:36.350',0.02,0.195,00000000000001101000000
'12:36.353',0.015,0.185,00000000000001001110000
'12:36.356',0.035,0.205,00000000000010110110000
'12:36.358',0.035,0.205,00000000000010110110000
'12:36.361',0.025,0.18,00000000000010000010000
'12:36.364',0.015,0.175,00000000000001001110000
'12:36.367',0.005,0.195,00000000000000011010000
'12:36.369',0.025,0.2,00000000000010000010000
'12:36.372',0.03,0.215,00000000000010011100000
'12:36.375',0.035,0.195,00000000000010110110000
'12:36.378',0.01,0.19,00000000000000110100000
'12:36.381',-0.005,0.18,11111111111111100100000
'12:36.383',-0.01,0.18,11111111111111001010000
'12:36.386',-0.025,0.19,11111111111101111100000
'12:36.389',-0.015,0.205,11111111111110110000000
'12:36.392',-0.015,0.18,11111111111110110000000
'12:36.394',-0.05,0.185,11111111111011111000000
'12:36.397',-0.07,0.165,11111111111010010000000
'12:36.400',-0.095,0.16,11111111111000001100000
'12:36.403',-0.075,0.18,11111111111001110110000
'12:36.406',-0.07,0.19,11111111111010010000000
'12:36.408',-0.085,0.175,11111111111001000010000
'12:36.411',-0.11,0.155,11111111110110111110000
'12:36.414',-0.13,0.135,11111111110101010110000
'12:36.417',-0.15,0.14,11111111110011101100000
'12:36.419',-0.165,0.14,11111111110010011110000
'12:36.422',-0.15,0.145,11111111110011101100000
'12:36.425',-0.185,0.135,11111111110000110110000
'12:36.428',-0.215,0.12,11111111101110011000000
'12:36.431',-0.24,0.12,11111111101100010100000
'12:36.433',-0.245,0.11,11111111101011111010000
'12:36.436',-0.255,0.125,11111111101011000110000
'12:36.439',-0.26,0.12,11111111101010101100000
'12:36.442',-0.265,0.115,11111111101010010010000
'12:36.444',-0.295,0.12,11111111100111110100000
'12:36.447',-0.29,0.105,11111111101000001110000
'12:36.450',-0.305,0.12,11111111100111000000000
'12:36.453',-0.28,0.145,11111111101001000010000
'12:36.456',-0.25,0.165,11111111101011100000000
'12:36.458',-0.23,0.175,11111111101101001010000
'12:36.461',-0.21,0.18,11111111101110110010000
'12:36.464',-0.225,0.175,11111111101101100100000
'12:36.467',-0.185,0.195,11111111110000110110000
'12:36.469',-0.15,0.215,11111111110011101100000
'12:36.472',-0.105,0.23,11111111110111011000000
'12:36.475',-0.085,0.22,11111111111001000010000
'12:36.478',-0.085,0.21,11111111111001000010000
'12:36.481',-0.075,0.2,11111111111001110110000
'12:36.483',-0.07,0.195,11111111111010010000000
'12:36.486',-0.045,0.205,11111111111100010100000
'12:36.489',-0.035,0.21,11111111111101001000000
'12:36.492',-0.02,0.19,11111111111110010110000
'12:36.494',-0.035,0.18,11111111111101001000000
'12:36.497',-0.04,0.155,11111111111100101110000
'12:36.500',-0.05,0.165,11111111111011111000000
'12:36.503',-0.035,0.18,11111111111101001000000
'12:36.506',-0.015,0.175,11111111111110110000000
'12:36.508',-0.02,0.17,11111111111110010110000
'12:36.511',-0.03,0.15,11111111111101100010000
'12:36.514',-0.035,0.125,11111111111101001000000
'12:36.517',-0.045,0.145,11111111111100010100000
'12:36.519',-0.035,0.17,11111111111101001000000
'12:36.522',-0.02,0.17,11111111111110010110000
'12:36.525',-0.015,0.155,11111111111110110000000
'12:36.528',-0.035,0.145,11111111111101001000000
'12:36.531',-0.05,0.135,11111111111011111000000
'12:36.533',-0.05,0.15,11111111111011111000000
'12:36.536',-0.035,0.15,11111111111101001000000
'12:36.539',-0.03,0.165,11111111111101100010000
'12:36.542',-0.03,0.15,11111111111101100010000
'12:36.544',-0.045,0.13,11111111111100010100000
'12:36.547',-0.065,0.12,11111111111010101010000
'12:36.550',-0.075,0.125,11111111111001110110000
'12:36.553',-0.06,0.14,11111111111011000100000
'12:36.556',-0.04,0.135,11111111111100101110000
'12:36.558',-0.04,0.135,11111111111100101110000
'12:36.561',-0.045,0.12,11111111111100010100000
'12:36.564',-0.065,0.115,11111111111010101010000
'12:36.567',-0.065,0.125,11111111111010101010000
'12:36.569',-0.04,0.135,11111111111100101110000
'12:36.572',-0.03,0.145,11111111111101100010000
'12:36.575',-0.02,0.125,11111111111110010110000
'12:36.578',-0.04,0.11,11111111111100101110000
'12:36.581',-0.07,0.105,11111111111010010000000
'12:36.583',-0.065,0.12,11111111111010101010000
'12:36.586',-0.06,0.125,11111111111011000100000
'12:36.589',-0.04,0.135,11111111111100101110000
'12:36.592',-0.045,0.13,11111111111100010100000
'12:36.594',-0.05,0.115,11111111111011111000000
'12:36.597',-0.075,0.105,11111111111001110110000
'12:36.600',-0.08,0.105,11111111111001011100000
'12:36.603',-0.07,0.13,11111111111010010000000
'12:36.606',-0.05,0.125,11111111111011111000000
'12:36.608',-0.065,0.11,11111111111010101010000
'12:36.611',-0.08,0.095,11111111111001011100000
'12:36.614',-0.11,0.085,11111111110110111110000
'12:36.617',-0.115,0.085,11111111110110100100000
'12:36.619',-0.105,0.105,11111111110111011000000
'12:36.622',-0.11,0.11,11111111110110111110000
'12:36.625',-0.1,0.095,11111111110111110010000
'12:36.628',-0.125,0.085,11111111110101110000000
'12:36.631',-0.16,0.075,11111111110010111000000
'12:36.633',-0.16,0.08,11111111110010111000000
'12:36.636',-0.155,0.09,11111111110011010010000
'12:36.639',-0.15,0.095,11111111110011101100000
'12:36.642',-0.145,0.1,11111111110100000110000
'12:36.644',-0.17,0.095,11111111110010000100000
'12:36.647',-0.195,0.065,11111111110000000000000
'12:36.650',-0.225,0.075,11111111101101100100000
'12:36.653',-0.225,0.045,11111111101101100100000
'12:36.656',-0.205,0.01,11111111101111001100000
'12:36.658',-0.205,-0.075,11111111101111001100000
'12:36.661',-0.18,-0.165,11111111110001010000000
'12:36.664',-0.1,-0.265,11111111110111110010000
'12:36.667',0.035,-0.34,00000000000010110110000
'12:36.669',0.21,-0.39,00000000010001001100000
'12:36.672',0.38,-0.4,00000000011111001000000
'12:36.675',0.515,-0.42,00000000101010001100000
'12:36.678',0.575,-0.405,00000000101111000110000
'12:36.681',0.56,-0.355,00000000101101111000000
'12:36.683',0.44,-0.275,00000000100100000010000
'12:36.686',0.25,-0.19,00000000010100011110000
'12:36.689',0.07,-0.095,00000000000101101110000
'12:36.692',-0.06,-0.02,11111111111011000100000
'12:36.694',-0.115,0.04,11111111110110100100000
'12:36.697',-0.11,0.1,11111111110110111110000
'12:36.700',-0.055,0.15,11111111111011011110000
'12:36.703',-0.005,0.19,11111111111111100100000
'12:36.706',0.045,0.2,00000000000011101010000
'12:36.708',0.055,0.21,00000000000100100000000
'12:36.711',0.06,0.175,00000000000100111010000
'12:36.714',0.03,0.17,00000000000010011100000
'12:36.717',0.02,0.19,00000000000001101000000
'12:36.719',0.025,0.205,00000000000010000010000
'12:36.722',0.03,0.215,00000000000010011100000
'12:36.725',0.04,0.195,00000000000011010000000
'12:36.728',0.03,0.18,00000000000010011100000
'12:36.731',0.015,0.185,00000000000001001110000
'12:36.733',0.01,0.195,00000000000000110100000
'12:36.736',0.02,0.2,00000000000001101000000
'12:36.739',0.025,0.21,00000000000010000010000
'12:36.742',0.035,0.2,00000000000010110110000
'12:36.744',0.02,0.19,00000000000001101000000
'12:36.747',0.01,0.185,00000000000000110100000
'12:36.750',0.01,0.185,00000000000000110100000
'12:36.753',0.025,0.19,00000000000010000010000
'12:36.756',0.025,0.21,00000000000010000010000
'12:36.758',0.04,0.195,00000000000011010000000
'12:36.761',0.045,0.17,00000000000011101010000
'12:36.764',0.025,0.17,00000000000010000010000
'12:36.767',0.025,0.185,00000000000010000010000
'12:36.769',0.03,0.2,00000000000010011100000
'12:36.772',0.04,0.215,00000000000011010000000
'12:36.775',0.05,0.205,00000000000100000110000
'12:36.778',0.035,0.19,00000000000010110110000
'12:36.781',0.03,0.18,00000000000010011100000
'12:36.783',0.035,0.185,00000000000010110110000
'12:36.786',0.04,0.195,00000000000011010000000
'12:36.789',0.06,0.2,00000000000100111010000
'12:36.792',0.06,0.2,00000000000100111010000
'12:36.794',0.055,0.18,00000000000100100000000
'12:36.797',0.05,0.19,00000000000100000110000
'12:36.800',0.05,0.185,00000000000100000110000
'12:36.803',0.055,0.195,00000000000100100000000
'12:36.806',0.065,0.21,00000000000101010100000
'12:36.808',0.07,0.195,00000000000101101110000
'12:36.811',0.065,0.185,00000000000101010100000
'12:36.814',0.055,0.19,00000000000100100000000
'12:36.817',0.06,0.185,00000000000100111010000
'12:36.819',0.07,0.195,00000000000101101110000
'12:36.822',0.09,0.195,00000000000111010110000
'12:36.825',0.095,0.195,00000000000111110010000
'12:36.828',0.06,0.17,00000000000100111010000
'12:36.831',0.045,0.145,00000000000011101010000
'12:36.833',0.03,0.16,00000000000010011100000
'12:36.836',0.045,0.175,00000000000011101010000
'12:36.839',0.055,0.185,00000000000100100000000
'12:36.842',0.04,0.17,00000000000011010000000
'12:36.844',0.015,0.165,00000000000001001110000
'12:36.847',-0.01,0.145,11111111111111001010000
'12:36.850',-0.025,0.16,11111111111101111100000
'12:36.853',-0.015,0.175,11111111111110110000000
'12:36.856',0.01,0.185,00000000000000110100000
'12:36.858',0,0.18,00000000000000000000000
'12:36.861',-0.015,0.17,11111111111110110000000
'12:36.864',-0.04,0.165,11111111111100101110000
'12:36.867',-0.05,0.19,11111111111011111000000
'12:36.869',-0.04,0.2,11111111111100101110000
'12:36.872',-0.025,0.21,11111111111101111100000
'12:36.875',-0.02,0.215,11111111111110010110000
'12:36.878',-0.005,0.205,11111111111111100100000
'12:36.881',0.005,0.22,00000000000000011010000
'12:36.883',0.02,0.24,00000000000001101000000
'12:36.886',0.045,0.255,00000000000011101010000
'12:36.889',0.045,0.26,00000000000011101010000
'12:36.892',0.06,0.255,00000000000100111010000
'12:36.894',0.025,0.24,00000000000010000010000
'12:36.897',0.03,0.24,00000000000010011100000
'12:36.900',0.025,0.255,00000000000010000010000
'12:36.903',0.04,0.285,00000000000011010000000
'12:36.906',0.045,0.295,00000000000011101010000
'12:36.908',0.04,0.28,00000000000011010000000
'12:36.911',0.045,0.25,00000000000011101010000
'12:36.914',0.035,0.23,00000000000010110110000
'12:36.917',0.03,0.225,00000000000010011100000
'12:36.919',0.04,0.215,00000000000011010000000
'12:36.922',0.05,0.23,00000000000100000110000
'12:36.925',0.035,0.22,00000000000010110110000
'12:36.928',0.02,0.195,00000000000001101000000
'12:36.931',0.01,0.175,00000000000000110100000
'12:36.933',0.015,0.18,00000000000001001110000
'12:36.936',0.03,0.18,00000000000010011100000
'12:36.939',0.03,0.18,00000000000010011100000
'12:36.942',0.005,0.17,00000000000000011010000
'12:36.944',-0.01,0.16,11111111111111001010000
'12:36.947',-0.025,0.145,11111111111101111100000
'12:36.950',-0.05,0.145,11111111111011111000000
'12:36.953',-0.035,0.165,11111111111101001000000
'12:36.956',-0.035,0.175,11111111111101001000000
'12:36.958',-0.04,0.15,11111111111100101110000
