'Elapsed time','MLII','V1',
'hh:mm:ss.mmm','mV','mV',
'13:20.000',-0.095,0.22,11111111111000001100000
'13:20.003',-0.11,0.175,11111111110110111110000
'13:20.006',-0.135,0.085,11111111110100111100000
'13:20.008',-0.145,0.045,11111111110100000110000
'13:20.011',-0.135,0.11,11111111110100111100000
'13:20.014',-0.11,0.195,11111111110110111110000
'13:20.017',-0.095,0.23,11111111111000001100000
'13:20.019',-0.1,0.2,11111111110111110010000
'13:20.022',-0.13,0.13,11111111110101010110000
'13:20.025',-0.13,0.08,11111111110101010110000
'13:20.028',-0.125,0.105,11111111110101110000000
'13:20.031',-0.115,0.17,11111111110110100100000
'13:20.033',-0.09,0.195,11111111111000101000000
'13:20.036',-0.11,0.15,11111111110110111110000
'13:20.039',-0.12,0.07,11111111110110001010000
'13:20.042',-0.16,0.01,11111111110010111000000
'13:20.044',-0.155,-0.005,11111111110011010010000
'13:20.047',-0.125,0.04,11111111110101110000000
'13:20.050',-0.11,0.07,11111111110110111110000
'13:20.053',-0.11,0.12,11111111110110111110000
'13:20.056',-0.115,0.165,11111111110110100100000
'13:20.058',-0.13,0.175,11111111110101010110000
'13:20.061',-0.125,0.125,11111111110101110000000
'13:20.064',-0.135,0.05,11111111110100111100000
'13:20.067',-0.12,-0.005,11111111110110001010000
'13:20.069',-0.12,-0.01,11111111110110001010000
'13:20.072',-0.125,0.03,11111111110101110000000
'13:20.075',-0.13,0.1,11111111110101010110000
'13:20.078',-0.125,0.14,11111111110101110000000
'13:20.081',-0.135,0.17,11111111110100111100000
'13:20.083',-0.105,0.155,11111111110111011000000
'13:20.086',-0.13,0.085,11111111110101010110000
'13:20.089',-0.15,0.015,11111111110011101100000
'13:20.092',-0.14,-0.01,11111111110100100000000
'13:20.094',-0.13,0.025,11111111110101010110000
'13:20.097',-0.095,0.075,11111111111000001100000
'13:20.100',-0.105,0.1,11111111110111011000000
'13:20.103',-0.1,0.105,11111111110111110010000
'13:20.106',-0.115,0.085,11111111110110100100000
'13:20.108',-0.145,0.045,11111111110100000110000
'13:20.111',-0.13,0.05,11111111110101010110000
'13:20.114',-0.12,0.055,11111111110110001010000
'13:20.117',-0.11,0.065,11111111110110111110000
'13:20.119',-0.11,0.065,11111111110110111110000
'13:20.122',-0.11,0.075,11111111110110111110000
'13:20.125',-0.11,0.105,11111111110110111110000
'13:20.128',-0.105,0.18,11111111110111011000000
'13:20.131',-0.09,0.25,11111111111000101000000
'13:20.133',-0.105,0.23,11111111110111011000000
'13:20.136',-0.12,0.145,11111111110110001010000
'13:20.139',-0.17,0.04,11111111110010000100000
'13:20.142',-0.19,-0.085,11111111110000011010000
'13:20.144',-0.18,-0.255,11111111110001010000000
'13:20.147',-0.12,-0.435,11111111110110001010000
'13:20.150',0.015,-0.595,00000000000001001110000
'13:20.153',0.225,-0.68,00000000010010011010000
'13:20.156',0.455,-0.705,00000000100101010000000
'13:20.158',0.665,-0.635,00000000110110011110000
'13:20.161',0.805,-0.535,00000001000001111100000
'13:20.164',0.835,-0.435,00000001000100011000000
'13:20.167',0.705,-0.355,00000000111001110000000
'13:20.169',0.38,-0.265,00000000011111001000000
'13:20.172',0.005,-0.15,00000000000000011010000
'13:20.175',-0.26,-0.01,11111111101010101100000
'13:20.178',-0.36,0.125,11111111100010100000000
'13:20.181',-0.325,0.195,11111111100101011000000
'13:20.183',-0.265,0.175,11111111101010010010000
'13:20.186',-0.21,0.12,11111111101110110010000
'13:20.189',-0.2,0.05,11111111101111100110000
'13:20.192',-0.19,0.04,11111111110000011010000
'13:20.194',-0.19,0.08,11111111110000011010000
'13:20.197',-0.205,0.145,11111111101111001100000
'13:20.200',-0.205,0.19,11111111101111001100000
'13:20.203',-0.205,0.22,11111111101111001100000
'13:20.206',-0.175,0.23,11111111110001101010000
'13:20.208',-0.165,0.23,11111111110010011110000
'13:20.211',-0.155,0.205,11111111110011010010000
'13:20.214',-0.15,0.15,11111111110011101100000
'13:20.217',-0.14,0.095,11111111110100100000000
'13:20.219',-0.135,0.06,11111111110100111100000
'13:20.222',-0.13,0.03,11111111110101010110000
'13:20.225',-0.135,0.045,11111111110100111100000
'13:20.228',-0.135,0.075,11111111110100111100000
'13:20.231',-0.12,0.125,11111111110110001010000
'13:20.233',-0.11,0.165,11111111110110111110000
'13:20.236',-0.115,0.155,11111111110110100100000
'13:20.239',-0.155,0.125,11111111110011010010000
'13:20.242',-0.135,0.11,11111111110100111100000
'13:20.244',-0.135,0.1,11111111110100111100000
'13:20.247',-0.115,0.105,11111111110110100100000
'13:20.250',-0.105,0.12,11111111110111011000000
'13:20.253',-0.115,0.125,11111111110110100100000
'13:20.256',-0.12,0.12,11111111110110001010000
'13:20.258',-0.13,0.13,11111111110101010110000
'13:20.261',-0.125,0.15,11111111110101110000000
'13:20.264',-0.095,0.175,11111111111000001100000
'13:20.267',-0.095,0.165,11111111111000001100000
'13:20.269',-0.105,0.155,11111111110111011000000
'13:20.272',-0.115,0.145,11111111110110100100000
'13:20.275',-0.11,0.18,11111111110110111110000
'13:20.278',-0.095,0.22,11111111111000001100000
'13:20.281',-0.09,0.22,11111111111000101000000
'13:20.283',-0.08,0.165,11111111111001011100000
'13:20.286',-0.095,0.115,11111111111000001100000
'13:20.289',-0.095,0.095,11111111111000001100000
'13:20.292',-0.085,0.12,11111111111001000010000
'13:20.294',-0.075,0.15,11111111111001110110000
'13:20.297',-0.075,0.215,11111111111001110110000
'13:20.300',-0.06,0.24,11111111111011000100000
'13:20.303',-0.075,0.2,11111111111001110110000
'13:20.306',-0.085,0.125,11111111111001000010000
'13:20.308',-0.105,0.065,11111111110111011000000
'13:20.311',-0.09,0.09,11111111111000101000000
'13:20.314',-0.085,0.145,11111111111001000010000
'13:20.317',-0.065,0.175,11111111111010101010000
'13:20.319',-0.06,0.175,11111111111011000100000
'13:20.322',-0.05,0.16,11111111111011111000000
'13:20.325',-0.06,0.205,11111111111011000100000
'13:20.328',-0.05,0.245,11111111111011111000000
'13:20.331',-0.06,0.27,11111111111011000100000
'13:20.333',-0.065,0.225,11111111111010101010000
'13:20.336',-0.055,0.16,11111111111011011110000
'13:20.339',-0.055,0.13,11111111111011011110000
'13:20.342',-0.055,0.135,11111111111011011110000
'13:20.344',-0.065,0.165,11111111111010101010000
'13:20.347',-0.055,0.185,11111111111011011110000
'13:20.350',-0.05,0.19,11111111111011111000000
'13:20.353',-0.055,0.185,11111111111011011110000
'13:20.356',-0.07,0.18,11111111111010010000000
'13:20.358',-0.075,0.17,11111111111001110110000
'13:20.361',-0.055,0.165,11111111111011011110000
'13:20.364',-0.05,0.19,11111111111011111000000
'13:20.367',-0.06,0.215,11111111111011000100000
'13:20.369',-0.08,0.21,11111111111001011100000
'13:20.372',-0.085,0.22,11111111111001000010000
'13:20.375',-0.09,0.22,11111111111000101000000
'13:20.378',-0.1,0.22,11111111110111110010000
'13:20.381',-0.085,0.215,11111111111001000010000
'13:20.383',-0.1,0.2,11111111110111110010000
'13:20.386',-0.115,0.18,11111111110110100100000
'13:20.389',-0.115,0.16,11111111110110100100000
'13:20.392',-0.135,0.16,11111111110100111100000
'13:20.394',-0.125,0.18,11111111110101110000000
'13:20.397',-0.105,0.185,11111111110111011000000
'13:20.400',-0.11,0.19,11111111110110111110000
'13:20.403',-0.13,0.175,11111111110101010110000
'13:20.406',-0.15,0.155,11111111110011101100000
'13:20.408',-0.16,0.145,11111111110010111000000
'13:20.411',-0.165,0.145,11111111110010011110000
'13:20.414',-0.16,0.15,11111111110010111000000
'13:20.417',-0.15,0.155,11111111110011101100000
'13:20.419',-0.18,0.165,11111111110001010000000
'13:20.422',-0.2,0.185,11111111101111100110000
'13:20.425',-0.225,0.2,11111111101101100100000
'13:20.428',-0.215,0.205,11111111101110011000000
'13:20.431',-0.205,0.215,11111111101111001100000
'13:20.433',-0.195,0.145,11111111110000000000000
'13:20.436',-0.205,0.11,11111111101111001100000
'13:20.439',-0.23,0.1,11111111101101001010000
'13:20.442',-0.24,0.11,11111111101100010100000
'13:20.444',-0.235,0.155,11111111101100101110000
'13:20.447',-0.23,0.19,11111111101101001010000
'13:20.450',-0.215,0.19,11111111101110011000000
'13:20.453',-0.22,0.17,11111111101101111110000
'13:20.456',-0.22,0.125,11111111101101111110000
'13:20.458',-0.23,0.1,11111111101101001010000
'13:20.461',-0.23,0.105,11111111101101001010000
'13:20.464',-0.215,0.14,11111111101110011000000
'13:20.467',-0.205,0.165,11111111101111001100000
'13:20.469',-0.215,0.19,11111111101110011000000
'13:20.472',-0.22,0.17,11111111101101111110000
'13:20.475',-0.23,0.165,11111111101101001010000
'13:20.478',-0.23,0.155,11111111101101001010000
'13:20.481',-0.215,0.155,11111111101110011000000
'13:20.483',-0.2,0.14,11111111101111100110000
'13:20.486',-0.2,0.11,11111111101111100110000
'13:20.489',-0.205,0.08,11111111101111001100000
'13:20.492',-0.225,0.05,11111111101101100100000
'13:20.494',-0.21,0.06,11111111101110110010000
'13:20.497',-0.195,0.105,11111111110000000000000
'13:20.500',-0.17,0.15,11111111110010000100000
'13:20.503',-0.17,0.19,11111111110010000100000
'13:20.506',-0.19,0.195,11111111110000011010000
'13:20.508',-0.185,0.155,11111111110000110110000
'13:20.511',-0.175,0.115,11111111110001101010000
'13:20.514',-0.175,0.11,11111111110001101010000
'13:20.517',-0.135,0.14,11111111110100111100000
'13:20.519',-0.145,0.165,11111111110100000110000
'13:20.522',-0.155,0.135,11111111110011010010000
'13:20.525',-0.16,0.09,11111111110010111000000
'13:20.528',-0.15,0.07,11111111110011101100000
'13:20.531',-0.135,0.1,11111111110100111100000
'13:20.533',-0.105,0.12,11111111110111011000000
'13:20.536',-0.11,0.145,11111111110110111110000
'13:20.539',-0.125,0.15,11111111110101110000000
'13:20.542',-0.135,0.13,11111111110100111100000
'13:20.544',-0.115,0.09,11111111110110100100000
'13:20.547',-0.105,0.04,11111111110111011000000
'13:20.550',-0.09,0.01,11111111111000101000000
'13:20.553',-0.095,0.025,11111111111000001100000
'13:20.556',-0.115,0.075,11111111110110100100000
'13:20.558',-0.115,0.085,11111111110110100100000
'13:20.561',-0.09,0.095,11111111111000101000000
'13:20.564',-0.095,0.09,11111111111000001100000
'13:20.567',-0.085,0.075,11111111111001000010000
'13:20.569',-0.09,0.07,11111111111000101000000
'13:20.572',-0.105,0.06,11111111110111011000000
'13:20.575',-0.115,0.075,11111111110110100100000
'13:20.578',-0.105,0.095,11111111110111011000000
'13:20.581',-0.095,0.12,11111111111000001100000
'13:20.583',-0.09,0.125,11111111111000101000000
'13:20.586',-0.1,0.105,11111111110111110010000
'13:20.589',-0.11,0.125,11111111110110111110000
'13:20.592',-0.12,0.165,11111111110110001010000
'13:20.594',-0.1,0.21,11111111110111110010000
'13:20.597',-0.085,0.195,11111111111001000010000
'13:20.600',-0.095,0.115,11111111111000001100000
'13:20.603',-0.11,0.015,11111111110110111110000
'13:20.606',-0.13,-0.03,11111111110101010110000
'13:20.608',-0.125,-0.005,11111111110101110000000
'13:20.611',-0.11,0.075,11111111110110111110000
'13:20.614',-0.09,0.155,11111111111000101000000
'13:20.617',-0.075,0.17,11111111111001110110000
'13:20.619',-0.1,0.145,11111111110111110010000
'13:20.622',-0.1,0.11,11111111110111110010000
'13:20.625',-0.125,0.07,11111111110101110000000
'13:20.628',-0.115,0.065,11111111110110100100000
'13:20.631',-0.105,0.08,11111111110111011000000
'13:20.633',-0.095,0.11,11111111111000001100000
'13:20.636',-0.12,0.16,11111111110110001010000
'13:20.639',-0.11,0.185,11111111110110111110000
'13:20.642',-0.13,0.17,11111111110101010110000
'13:20.644',-0.105,0.1,11111111110111011000000
'13:20.647',-0.1,0.05,11111111110111110010000
'13:20.650',-0.085,0.03,11111111111001000010000
'13:20.653',-0.105,0.045,11111111110111011000000
'13:20.656',-0.11,0.06,11111111110110111110000
'13:20.658',-0.125,0.04,11111111110101110000000
'13:20.661',-0.1,0.025,11111111110111110010000
'13:20.664',-0.085,0.055,11111111111001000010000
'13:20.667',-0.075,0.07,11111111111001110110000
'13:20.669',-0.08,0.1,11111111111001011100000
'13:20.672',-0.095,0.095,11111111111000001100000
'13:20.675',-0.12,0.09,11111111110110001010000
'13:20.678',-0.125,0.085,11111111110101110000000
'13:20.681',-0.11,0.065,11111111110110111110000
'13:20.683',-0.1,0.075,11111111110111110010000
'13:20.686',-0.1,0.07,11111111110111110010000
'13:20.689',-0.11,0.095,11111111110110111110000
'13:20.692',-0.12,0.095,11111111110110001010000
'13:20.694',-0.105,0.105,11111111110111011000000
'13:20.697',-0.115,0.13,11111111110110100100000
'13:20.700',-0.115,0.13,11111111110110100100000
'13:20.703',-0.13,0.13,11111111110101010110000
'13:20.706',-0.115,0.135,11111111110110100100000
'13:20.708',-0.11,0.115,11111111110110111110000
'13:20.711',-0.095,0.1,11111111111000001100000
'13:20.714',-0.1,0.075,11111111110111110010000
'13:20.717',-0.095,0.05,11111111111000001100000
'13:20.719',-0.1,0.05,11111111110111110010000
'13:20.722',-0.105,0.075,11111111110111011000000
'13:20.725',-0.11,0.135,11111111110110111110000
'13:20.728',-0.1,0.14,11111111110111110010000
'13:20.731',-0.09,0.095,11111111111000101000000
'13:20.733',-0.09,0.05,11111111111000101000000
'13:20.736',-0.125,0.005,11111111110101110000000
'13:20.739',-0.125,-0.005,11111111110101110000000
'13:20.742',-0.125,0,11111111110101110000000
'13:20.744',-0.115,0.02,11111111110110100100000
'13:20.747',-0.1,0.03,11111111110111110010000
'13:20.750',-0.095,0.06,11111111111000001100000
'13:20.753',-0.095,0.08,11111111111000001100000
'13:20.756',-0.105,0.08,11111111110111011000000
'13:20.758',-0.125,0.055,11111111110101110000000
'13:20.761',-0.125,0.05,11111111110101110000000
'13:20.764',-0.1,0.065,11111111110111110010000
'13:20.767',-0.09,0.105,11111111111000101000000
'13:20.769',-0.09,0.145,11111111111000101000000
'13:20.772',-0.1,0.13,11111111110111110010000
'13:20.775',-0.11,0.075,11111111110110111110000
'13:20.778',-0.1,0.015,11111111110111110010000
'13:20.781',-0.105,0.005,11111111110111011000000
'13:20.783',-0.1,-0.005,11111111110111110010000
'13:20.786',-0.11,0.02,11111111110110111110000
'13:20.789',-0.13,0.045,11111111110101010110000
'13:20.792',-0.125,0.055,11111111110101110000000
'13:20.794',-0.11,0.065,11111111110110111110000
'13:20.797',-0.1,0.075,11111111110111110010000
'13:20.800',-0.105,0.07,11111111110111011000000
'13:20.803',-0.115,0.065,11111111110110100100000
'13:20.806',-0.105,0.04,11111111110111011000000
'13:20.808',-0.115,0.03,11111111110110100100000
'13:20.811',-0.11,0.045,11111111110110111110000
'13:20.814',-0.11,0.055,11111111110110111110000
'13:20.817',-0.115,0.065,11111111110110100100000
'13:20.819',-0.105,0.045,11111111110111011000000
'13:20.822',-0.13,0.045,11111111110101010110000
'13:20.825',-0.13,0.065,11111111110101010110000
'13:20.828',-0.115,0.1,11111111110110100100000
'13:20.831',-0.11,0.12,11111111110110111110000
'13:20.833',-0.1,0.11,11111111110111110010000
'13:20.836',-0.105,0.07,11111111110111011000000
'13:20.839',-0.115,0.025,11111111110110100100000
'13:20.842',-0.135,0.005,11111111110100111100000
'13:20.844',-0.12,0.04,11111111110110001010000
'13:20.847',-0.09,0.075,11111111111000101000000
'13:20.850',-0.105,0.085,11111111110111011000000
'13:20.853',-0.11,0.065,11111111110110111110000
'13:20.856',-0.13,0.025,11111111110101010110000
'13:20.858',-0.13,0.045,11111111110101010110000
'13:20.861',-0.125,0.08,11111111110101110000000
'13:20.864',-0.105,0.085,11111111110111011000000
'13:20.867',-0.095,0.045,11111111111000001100000
'13:20.869',-0.115,-0.015,11111111110110100100000
'13:20.872',-0.125,-0.04,11111111110101110000000
'13:20.875',-0.14,-0.015,11111111110100100000000
'13:20.878',-0.13,0.05,11111111110101010110000
'13:20.881',-0.12,0.115,11111111110110001010000
'13:20.883',-0.11,0.13,11111111110110111110000
'13:20.886',-0.12,0.11,11111111110110001010000
'13:20.889',-0.12,0.075,11111111110110001010000
'13:20.892',-0.14,0.06,11111111110100100000000
'13:20.894',-0.13,0.06,11111111110101010110000
'13:20.897',-0.11,0.08,11111111110110111110000
'13:20.900',-0.105,0.045,11111111110111011000000
'13:20.903',-0.11,-0.015,11111111110110111110000
'13:20.906',-0.14,-0.06,11111111110100100000000
'13:20.908',-0.13,-0.055,11111111110101010110000
'13:20.911',-0.125,0,11111111110101110000000
'13:20.914',-0.11,0.035,11111111110110111110000
'13:20.917',-0.12,0.05,11111111110110001010000
'13:20.919',-0.11,0.055,11111111110110111110000
'13:20.922',-0.125,0.055,11111111110101110000000
'13:20.925',-0.115,0.055,11111111110110100100000
'13:20.928',-0.11,0.05,11111111110110111110000
'13:20.931',-0.12,0.05,11111111110110001010000
'13:20.933',-0.095,0.03,11111111111000001100000
'13:20.936',-0.12,0.045,11111111110110001010000
'13:20.939',-0.125,0.06,11111111110101110000000
'13:20.942',-0.135,0.105,11111111110100111100000
'13:20.944',-0.135,0.105,11111111110100111100000
'13:20.947',-0.12,0.07,11111111110110001010000
'13:20.950',-0.115,0.01,11111111110110100100000
'13:20.953',-0.125,-0.015,11111111110101110000000
'13:20.956',-0.135,-0.02,11111111110100111100000
'13:20.958',-0.135,-0.01,11111111110100111100000
'13:20.961',-0.125,-0.005,11111111110101110000000
'13:20.964',-0.115,0.03,11111111110110100100000
'13:20.967',-0.09,0.08,11111111111000101000000
'13:20.969',-0.1,0.105,11111111110111110010000
'13:20.972',-0.125,0.115,11111111110101110000000
'13:20.975',-0.14,0.1,11111111110100100000000
'13:20.978',-0.15,0.085,11111111110011101100000
'13:20.981',-0.135,0.07,11111111110100111100000
'13:20.983',-0.125,0.065,11111111110101110000000
'13:20.986',-0.115,0.075,11111111110110100100000
'13:20.989',-0.13,0.05,11111111110101010110000
'13:20.992',-0.14,0.015,11111111110100100000000
'13:20.994',-0.145,-0.035,11111111110100000110000
'13:20.997',-0.125,-0.01,11111111110101110000000
'13:21.000',-0.12,0.03,11111111110110001010000
'13:21.003',-0.13,0.045,11111111110101010110000
'13:21.006',-0.135,0.06,11111111110100111100000
'13:21.008',-0.14,0.065,11111111110100100000000
'13:21.011',-0.12,0.055,11111111110110001010000
'13:21.014',-0.11,0.08,11111111110110111110000
'13:21.017',-0.115,0.04,11111111110110100100000
'13:21.019',-0.11,0.015,11111111110110111110000
'13:21.022',-0.115,0.005,11111111110110100100000
'13:21.025',-0.12,0.02,11111111110110001010000
'13:21.028',-0.12,0.065,11111111110110001010000
'13:21.031',-0.13,0.1,11111111110101010110000
'13:21.033',-0.125,0.085,11111111110101110000000
'13:21.036',-0.13,0.04,11111111110101010110000
'13:21.039',-0.155,0.01,11111111110011010010000
'13:21.042',-0.145,0.025,11111111110100000110000
'13:21.044',-0.14,0.055,11111111110100100000000
'13:21.047',-0.11,0.095,11111111110110111110000
'13:21.050',-0.11,0.06,11111111110110111110000
'13:21.053',-0.12,0,11111111110110001010000
'13:21.056',-0.135,-0.04,11111111110100111100000
'13:21.058',-0.155,0.01,11111111110011010010000
'13:21.061',-0.135,0.08,11111111110100111100000
'13:21.064',-0.135,0.145,11111111110100111100000
'13:21.067',-0.11,0.095,11111111110110111110000
'13:21.069',-0.125,0.005,11111111110101110000000
'13:21.072',-0.15,-0.085,11111111110011101100000
'13:21.075',-0.15,-0.095,11111111110011101100000
'13:21.078',-0.13,-0.06,11111111110101010110000
'13:21.081',-0.125,0.015,11111111110101110000000
'13:21.083',-0.1,0.05,11111111110111110010000
'13:21.086',-0.115,0.07,11111111110110100100000
'13:21.089',-0.145,0.1,11111111110100000110000
'13:21.092',-0.16,0.08,11111111110010111000000
'13:21.094',-0.14,0.025,11111111110100100000000
'13:21.097',-0.135,-0.005,11111111110100111100000
'13:21.100',-0.11,-0.02,11111111110110111110000
'13:21.103',-0.14,-0.005,11111111110100100000000
'13:21.106',-0.145,0.025,11111111110100000110000
'13:21.108',-0.13,0.065,11111111110101010110000
'13:21.111',-0.115,0.125,11111111110110100100000
'13:21.114',-0.105,0.135,11111111110111011000000
'13:21.117',-0.1,0.115,11111111110111110010000
'13:21.119',-0.095,0.07,11111111111000001100000
'13:21.122',-0.125,0.07,11111111110101110000000
'13:21.125',-0.145,0.09,11111111110100000110000
'13:21.128',-0.145,0.09,11111111110100000110000
'13:21.131',-0.145,0.085,11111111110100000110000
'13:21.133',-0.14,0.065,11111111110100100000000
'13:21.136',-0.155,0.055,11111111110011010010000
'13:21.139',-0.155,0.03,11111111110011010010000
'13:21.142',-0.16,-0.015,11111111110010111000000
'13:21.144',-0.145,-0.055,11111111110100000110000
'13:21.147',-0.125,-0.035,11111111110101110000000
'13:21.150',-0.11,-0.01,11111111110110111110000
'13:21.153',-0.11,0.02,11111111110110111110000
'13:21.156',-0.155,0.005,11111111110011010010000
'13:21.158',-0.185,-0.025,11111111110000110110000
'13:21.161',-0.16,-0.025,11111111110010111000000
'13:21.164',-0.14,-0.015,11111111110100100000000
'13:21.167',-0.125,-0.015,11111111110101110000000
'13:21.169',-0.155,0.005,11111111110011010010000
'13:21.172',-0.165,0.005,11111111110010011110000
'13:21.175',-0.17,0.035,11111111110010000100000
'13:21.178',-0.155,0.055,11111111110011010010000
'13:21.181',-0.15,0.065,11111111110011101100000
'13:21.183',-0.135,0.06,11111111110100111100000
'13:21.186',-0.13,0.05,11111111110101010110000
'13:21.189',-0.14,0.04,11111111110100100000000
'13:21.192',-0.14,0.015,11111111110100100000000
'13:21.194',-0.135,-0.01,11111111110100111100000
'13:21.197',-0.11,-0.01,11111111110110111110000
'13:21.200',-0.115,-0.005,11111111110110100100000
'13:21.203',-0.115,0.035,11111111110110100100000
'13:21.206',-0.14,0.07,11111111110100100000000
'13:21.208',-0.145,0.065,11111111110100000110000
'13:21.211',-0.155,0.06,11111111110011010010000
'13:21.214',-0.145,0.06,11111111110100000110000
'13:21.217',-0.145,0.005,11111111110100000110000
'13:21.219',-0.16,-0.035,11111111110010111000000
'13:21.222',-0.17,-0.06,11111111110010000100000
'13:21.225',-0.18,-0.01,11111111110001010000000
'13:21.228',-0.16,0.065,11111111110010111000000
'13:21.231',-0.145,0.11,11111111110100000110000
'13:21.233',-0.14,0.09,11111111110100100000000
'13:21.236',-0.16,0.035,11111111110010111000000
'13:21.239',-0.17,-0.005,11111111110010000100000
'13:21.242',-0.175,-0.015,11111111110001101010000
'13:21.244',-0.16,0.02,11111111110010111000000
'13:21.247',-0.15,0.055,11111111110011101100000
'13:21.250',-0.13,0.085,11111111110101010110000
'13:21.253',-0.14,0.095,11111111110100100000000
'13:21.256',-0.175,0.055,11111111110001101010000
'13:21.258',-0.17,0.005,11111111110010000100000
'13:21.261',-0.175,-0.05,11111111110001101010000
'13:21.264',-0.15,-0.055,11111111110011101100000
'13:21.267',-0.125,-0.015,11111111110101110000000
'13:21.269',-0.125,0.025,11111111110101110000000
'13:21.272',-0.125,0.015,11111111110101110000000
'13:21.275',-0.135,-0.055,11111111110100111100000
'13:21.278',-0.1,-0.115,11111111110111110010000
'13:21.281',-0.095,-0.125,11111111111000001100000
'13:21.283',-0.08,-0.125,11111111111001011100000
'13:21.286',-0.07,-0.075,11111111111010010000000
'13:21.289',-0.08,-0.07,11111111111001011100000
'13:21.292',-0.08,-0.05,11111111111001011100000
'13:21.294',-0.07,-0.01,11111111111010010000000
'13:21.297',-0.045,0.045,11111111111100010100000
'13:21.300',-0.045,0.05,11111111111100010100000
'13:21.303',-0.06,0.06,11111111111011000100000
'13:21.306',-0.065,0.025,11111111111010101010000
'13:21.308',-0.1,-0.02,11111111110111110010000
'13:21.311',-0.11,-0.05,11111111110110111110000
'13:21.314',-0.13,-0.04,11111111110101010110000
'13:21.317',-0.135,-0.005,11111111110100111100000
'13:21.319',-0.135,0.045,11111111110100111100000
'13:21.322',-0.14,0.055,11111111110100100000000
'13:21.325',-0.15,0.025,11111111110011101100000
'13:21.328',-0.14,0.025,11111111110100100000000
'13:21.331',-0.145,0.025,11111111110100000110000
'13:21.333',-0.175,0.015,11111111110001101010000
'13:21.336',-0.185,0.025,11111111110000110110000
'13:21.339',-0.225,0.02,11111111101101100100000
'13:21.342',-0.245,0.03,11111111101011111010000
'13:21.344',-0.225,0.05,11111111101101100100000
'13:21.347',-0.215,0.055,11111111101110011000000
'13:21.350',-0.21,0.04,11111111101110110010000
'13:21.353',-0.2,0.01,11111111101111100110000
'13:21.356',-0.235,0,11111111101100101110000
'13:21.358',-0.225,0.005,11111111101101100100000
'13:21.361',-0.225,-0.005,11111111101101100100000
'13:21.364',-0.215,-0.01,11111111101110011000000
'13:21.367',-0.2,-0.04,11111111101111100110000
'13:21.369',-0.2,-0.055,11111111101111100110000
'13:21.372',-0.215,-0.04,11111111101110011000000
'13:21.375',-0.22,0.005,11111111101101111110000
'13:21.378',-0.22,0,11111111101101111110000
'13:21.381',-0.215,0.025,11111111101110011000000
'13:21.383',-0.205,0.03,11111111101111001100000
'13:21.386',-0.205,0.06,11111111101111001100000
'13:21.389',-0.2,0.105,11111111101111100110000
'13:21.392',-0.19,0.14,11111111110000011010000
'13:21.394',-0.185,0.165,11111111110000110110000
'13:21.397',-0.17,0.135,11111111110010000100000
'13:21.400',-0.175,0.065,11111111110001101010000
'13:21.403',-0.2,-0.03,11111111101111100110000
'13:21.406',-0.24,-0.16,11111111101100010100000
'13:21.408',-0.275,-0.28,11111111101001011110000
'13:21.411',-0.265,-0.425,11111111101010010010000
'13:21.414',-0.19,-0.525,11111111110000011010000
'13:21.417',-0.07,-0.635,11111111111010010000000
'13:21.419',0.105,-0.7,00000000001000100110000
'13:21.422',0.275,-0.72,00000000010110100000000
'13:21.425',0.42,-0.665,00000000100010011010000
'13:21.428',0.525,-0.565,00000000101011000000000
'13:21.431',0.53,-0.435,00000000101011011010000
'13:21.433',0.365,-0.32,00000000011101111000000
'13:21.436',0.055,-0.255,00000000000100100000000
'13:21.439',-0.28,-0.22,11111111101001000010000
'13:21.442',-0.475,-0.13,11111111011001000100000
'13:21.444',-0.505,-0.005,11111111010110101000000
'13:21.447',-0.44,0.11,11111111011011111100000
'13:21.450',-0.36,0.17,11111111100010100000000
'13:21.453',-0.28,0.195,11111111101001000010000
'13:21.456',-0.24,0.165,11111111101100010100000
'13:21.458',-0.215,0.125,11111111101110011000000
'13:21.461',-0.205,0.075,11111111101111001100000
'13:21.464',-0.205,0.045,11111111101111001100000
'13:21.467',-0.205,0.035,11111111101111001100000
'13:21.469',-0.205,0.06,11111111101111001100000
'13:21.472',-0.215,0.09,11111111101110011000000
'13:21.475',-0.225,0.09,11111111101101100100000
'13:21.478',-0.22,0.095,11111111101101111110000
'13:21.481',-0.215,0.085,11111111101110011000000
'13:21.483',-0.215,0.06,11111111101110011000000
'13:21.486',-0.225,0.06,11111111101101100100000
'13:21.489',-0.235,0.075,11111111101100101110000
'13:21.492',-0.24,0.145,11111111101100010100000
'13:21.494',-0.225,0.21,11111111101101100100000
'13:21.497',-0.215,0.22,11111111101110011000000
'13:21.500',-0.21,0.155,11111111101110110010000
'13:21.503',-0.215,0.04,11111111101110011000000
'13:21.506',-0.23,-0.015,11111111101101001010000
'13:21.508',-0.25,0,11111111101011100000000
'13:21.511',-0.24,0.025,11111111101100010100000
'13:21.514',-0.215,0.055,11111111101110011000000
'13:21.517',-0.21,0.06,11111111101110110010000
'13:21.519',-0.21,0.07,11111111101110110010000
'13:21.522',-0.235,0.095,11111111101100101110000
'13:21.525',-0.25,0.09,11111111101011100000000
'13:21.528',-0.225,0.09,11111111101101100100000
'13:21.531',-0.215,0.09,11111111101110011000000
'13:21.533',-0.185,0.08,11111111110000110110000
'13:21.536',-0.195,0.08,11111111110000000000000
'13:21.539',-0.215,0.105,11111111101110011000000
'13:21.542',-0.22,0.12,11111111101101111110000
'13:21.544',-0.2,0.145,11111111101111100110000
'13:21.547',-0.21,0.165,11111111101110110010000
'13:21.550',-0.215,0.175,11111111101110011000000
'13:21.553',-0.21,0.18,11111111101110110010000
'13:21.556',-0.205,0.195,11111111101111001100000
'13:21.558',-0.215,0.205,11111111101110011000000
'13:21.561',-0.215,0.18,11111111101110011000000
'13:21.564',-0.2,0.125,11111111101111100110000
'13:21.567',-0.195,0.045,11111111110000000000000
'13:21.569',-0.2,-0.015,11111111101111100110000
'13:21.572',-0.205,-0.005,11111111101111001100000
'13:21.575',-0.205,0.05,11111111101111001100000
'13:21.578',-0.2,0.11,11111111101111100110000
'13:21.581',-0.195,0.115,11111111110000000000000
'13:21.583',-0.21,0.095,11111111101110110010000
'13:21.586',-0.225,0.075,11111111101101100100000
'13:21.589',-0.235,0.095,11111111101100101110000
'13:21.592',-0.235,0.105,11111111101100101110000
'13:21.594',-0.23,0.105,11111111101101001010000
'13:21.597',-0.225,0.085,11111111101101100100000
'13:21.600',-0.225,0.04,11111111101101100100000
'13:21.603',-0.225,0.015,11111111101101100100000
'13:21.606',-0.23,0.025,11111111101101001010000
'13:21.608',-0.23,0.08,11111111101101001010000
'13:21.611',-0.22,0.125,11111111101101111110000
'13:21.614',-0.22,0.17,11111111101101111110000
'13:21.617',-0.2,0.175,11111111101111100110000
'13:21.619',-0.215,0.145,11111111101110011000000
'13:21.622',-0.23,0.105,11111111101101001010000
'13:21.625',-0.245,0.045,11111111101011111010000
'13:21.628',-0.235,0.02,11111111101100101110000
'13:21.631',-0.22,0.035,11111111101101111110000
'13:21.633',-0.23,0.095,11111111101101001010000
'13:21.636',-0.2,0.115,11111111101111100110000
'13:21.639',-0.22,0.09,11111111101101111110000
'13:21.642',-0.215,0.015,11111111101110011000000
'13:21.644',-0.21,-0.01,11111111101110110010000
'13:21.647',-0.175,0.02,11111111110001101010000
'13:21.650',-0.14,0.105,11111111110100100000000
'13:21.653',-0.105,0.16,11111111110111011000000
'13:21.656',-0.09,0.15,11111111111000101000000
'13:21.658',-0.085,0.12,11111111111001000010000
'13:21.661',-0.105,0.09,11111111110111011000000
'13:21.664',-0.105,0.085,11111111110111011000000
'13:21.667',-0.1,0.05,11111111110111110010000
'13:21.669',-0.105,0.035,11111111110111011000000
'13:21.672',-0.115,0.03,11111111110110100100000
'13:21.675',-0.145,0.08,11111111110100000110000
'13:21.678',-0.17,0.13,11111111110010000100000
'13:21.681',-0.19,0.165,11111111110000011010000
'13:21.683',-0.21,0.165,11111111101110110010000
'13:21.686',-0.245,0.14,11111111101011111010000
'13:21.689',-0.255,0.13,11111111101011000110000
'13:21.692',-0.245,0.16,11111111101011111010000
'13:21.694',-0.225,0.235,11111111101101100100000
'13:21.697',-0.195,0.285,11111111110000000000000
'13:21.700',-0.22,0.24,11111111101101111110000
'13:21.703',-0.27,0.14,11111111101001111000000
'13:21.706',-0.325,0.045,11111111100101011000000
'13:21.708',-0.365,-0.01,11111111100010000110000
'13:21.711',-0.37,-0.005,11111111100001101100000
'13:21.714',-0.355,0,11111111100010111010000
'13:21.717',-0.355,-0.03,11111111100010111010000
'13:21.719',-0.375,-0.055,11111111100001010000000
'13:21.722',-0.395,-0.06,11111111011111101000000
'13:21.725',-0.41,0,11111111011110011010000
'13:21.728',-0.41,0.065,11111111011110011010000
'13:21.731',-0.415,0.115,11111111011110000000000
'13:21.733',-0.41,0.11,11111111011110011010000
'13:21.736',-0.415,0.135,11111111011110000000000
'13:21.739',-0.415,0.18,11111111011110000000000
'13:21.742',-0.415,0.205,11111111011110000000000
'13:21.744',-0.425,0.205,11111111011101001010000
'13:21.747',-0.405,0.16,11111111011110110100000
'13:21.750',-0.405,0.065,11111111011110110100000
'13:21.753',-0.41,-0.015,11111111011110011010000
'13:21.756',-0.425,-0.11,11111111011101001010000
'13:21.758',-0.415,-0.155,11111111011110000000000
'13:21.761',-0.405,-0.14,11111111011110110100000
'13:21.764',-0.385,-0.08,11111111100000011100000
'13:21.767',-0.39,-0.03,11111111100000000010000
'13:21.769',-0.405,0.01,11111111011110110100000
'13:21.772',-0.42,0.035,11111111011101100100000
'13:21.775',-0.42,0.03,11111111011101100100000
'13:21.778',-0.405,0.05,11111111011110110100000
'13:21.781',-0.385,0.08,11111111100000011100000
'13:21.783',-0.37,0.11,11111111100001101100000
'13:21.786',-0.365,0.105,11111111100010000110000
'13:21.789',-0.37,0.065,11111111100001101100000
'13:21.792',-0.375,0.05,11111111100001010000000
'13:21.794',-0.375,0.04,11111111100001010000000
'13:21.797',-0.35,0.045,11111111100011010100000
'13:21.800',-0.345,0.02,11111111100011101110000
'13:21.803',-0.35,-0.005,11111111100011010100000
'13:21.806',-0.375,-0.015,11111111100001010000000
'13:21.808',-0.385,0.005,11111111100000011100000
'13:21.811',-0.355,0.02,11111111100010111010000
'13:21.814',-0.325,0.045,11111111100101011000000
'13:21.817',-0.31,0.04,11111111100110100110000
'13:21.819',-0.305,0.035,11111111100111000000000
'13:21.822',-0.32,0.045,11111111100101110010000
'13:21.825',-0.33,0.065,11111111100100111100000
'13:21.828',-0.31,0.06,11111111100110100110000
'13:21.831',-0.325,0.05,11111111100101011000000
'13:21.833',-0.31,0.005,11111111100110100110000
'13:21.836',-0.305,-0.01,11111111100111000000000
'13:21.839',-0.315,-0.005,11111111100110001100000
'13:21.842',-0.3,0,11111111100111011010000
'13:21.844',-0.295,0.03,11111111100111110100000
'13:21.847',-0.27,0.035,11111111101001111000000
'13:21.850',-0.26,0.015,11111111101010101100000
'13:21.853',-0.27,0.05,11111111101001111000000
'13:21.856',-0.275,0.095,11111111101001011110000
'13:21.858',-0.27,0.16,11111111101001111000000
'13:21.861',-0.26,0.185,11111111101010101100000
'13:21.864',-0.245,0.135,11111111101011111010000
'13:21.867',-0.24,0.015,11111111101100010100000
'13:21.869',-0.235,-0.085,11111111101100101110000
'13:21.872',-0.245,-0.125,11111111101011111010000
'13:21.875',-0.245,-0.115,11111111101011111010000
'13:21.878',-0.235,-0.085,11111111101100101110000
'13:21.881',-0.205,-0.06,11111111101111001100000
'13:21.883',-0.21,-0.055,11111111101110110010000
'13:21.886',-0.22,-0.055,11111111101101111110000
'13:21.889',-0.215,-0.035,11111111101110011000000
'13:21.892',-0.225,-0.02,11111111101101100100000
'13:21.894',-0.195,0.035,11111111110000000000000
'13:21.897',-0.2,0.08,11111111101111100110000
'13:21.900',-0.18,0.115,11111111110001010000000
'13:21.903',-0.2,0.125,11111111101111100110000
'13:21.906',-0.225,0.125,11111111101101100100000
'13:21.908',-0.255,0.12,11111111101011000110000
'13:21.911',-0.31,0.125,11111111100110100110000
'13:21.914',-0.33,0.11,11111111100100111100000
'13:21.917',-0.355,0.06,11111111100010111010000
'13:21.919',-0.32,0.01,11111111100101110010000
'13:21.922',-0.285,-0.05,11111111101000101000000
'13:21.925',-0.205,-0.095,11111111101111001100000
'13:21.928',-0.03,-0.15,11111111111101100010000
'13:21.931',0.215,-0.18,00000000010001100110000
'13:21.933',0.505,-0.215,00000000101001010110000
'13:21.936',0.695,-0.215,00000000111000111010000
'13:21.939',0.71,-0.205,00000000111010001010000
'13:21.942',0.55,-0.15,00000000101101000010000
'13:21.944',0.24,-0.055,00000000010011101010000
'13:21.947',-0.055,0.03,11111111111011011110000
'13:21.950',-0.225,0.06,11111111101101100100000
'13:21.953',-0.29,0.07,11111111101000001110000
'13:21.956',-0.26,0.05,11111111101010101100000
'13:21.958',-0.185,0.02,11111111110000110110000
'13:21.961',-0.145,0.005,11111111110100000110000
'13:21.964',-0.115,0.01,11111111110110100100000
'13:21.967',-0.125,0,11111111110101110000000
'13:21.969',-0.12,0.01,11111111110110001010000
'13:21.972',-0.125,0.04,11111111110101110000000
'13:21.975',-0.13,0.08,11111111110101010110000
'13:21.978',-0.12,0.12,11111111110110001010000
'13:21.981',-0.125,0.145,11111111110101110000000
'13:21.983',-0.14,0.1,11111111110100100000000
'13:21.986',-0.17,0.03,11111111110010000100000
'13:21.989',-0.2,-0.03,11111111101111100110000
'13:21.992',-0.19,-0.045,11111111110000011010000
'13:21.994',-0.165,-0.015,11111111110010011110000
'13:21.997',-0.155,0.02,11111111110011010010000
'13:22.000',-0.16,0.03,11111111110010111000000
'13:22.003',-0.165,0.04,11111111110010011110000
'13:22.006',-0.18,0.055,11111111110001010000000
'13:22.008',-0.185,0.07,11111111110000110110000
'13:22.011',-0.18,0.075,11111111110001010000000
'13:22.014',-0.175,0.06,11111111110001101010000
'13:22.017',-0.18,0.025,11111111110001010000000
'13:22.019',-0.185,-0.015,11111111110000110110000
'13:22.022',-0.2,-0.035,11111111101111100110000
'13:22.025',-0.21,-0.03,11111111101110110010000
'13:22.028',-0.2,-0.01,11111111101111100110000
'13:22.031',-0.195,0.01,11111111110000000000000
'13:22.033',-0.21,-0.005,11111111101110110010000
'13:22.036',-0.21,-0.03,11111111101110110010000
'13:22.039',-0.215,-0.05,11111111101110011000000
'13:22.042',-0.225,-0.045,11111111101101100100000
'13:22.044',-0.215,-0.025,11111111101110011000000
'13:22.047',-0.2,-0.01,11111111101111100110000
'13:22.050',-0.2,-0.005,11111111101111100110000
'13:22.053',-0.225,-0.015,11111111101101100100000
'13:22.056',-0.22,-0.015,11111111101101111110000
'13:22.058',-0.23,0,11111111101101001010000
'13:22.061',-0.215,0.015,11111111101110011000000
'13:22.064',-0.205,0.01,11111111101111001100000
'13:22.067',-0.21,0,11111111101110110010000
'13:22.069',-0.22,-0.005,11111111101101111110000
'13:22.072',-0.22,0.015,11111111101101111110000
'13:22.075',-0.23,0.025,11111111101101001010000
'13:22.078',-0.22,0.04,11111111101101111110000
'13:22.081',-0.2,0.045,11111111101111100110000
'13:22.083',-0.2,0.02,11111111101111100110000
'13:22.086',-0.2,-0.005,11111111101111100110000
'13:22.089',-0.215,-0.01,11111111101110011000000
'13:22.092',-0.225,0,11111111101101100100000
'13:22.094',-0.21,0.025,11111111101110110010000
'13:22.097',-0.19,0.05,11111111110000011010000
'13:22.100',-0.185,0.06,11111111110000110110000
'13:22.103',-0.2,0.065,11111111101111100110000
'13:22.106',-0.205,0.1,11111111101111001100000
'13:22.108',-0.21,0.12,11111111101110110010000
'13:22.111',-0.22,0.105,11111111101101111110000
'13:22.114',-0.19,0.055,11111111110000011010000
'13:22.117',-0.18,-0.025,11111111110001010000000
'13:22.119',-0.175,-0.09,11111111110001101010000
'13:22.122',-0.175,-0.085,11111111110001101010000
'13:22.125',-0.17,-0.05,11111111110010000100000
'13:22.128',-0.145,0.01,11111111110100000110000
'13:22.131',-0.13,0.035,11111111110101010110000
'13:22.133',-0.11,0.02,11111111110110111110000
'13:22.136',-0.115,-0.015,11111111110110100100000
'13:22.139',-0.12,-0.02,11111111110110001010000
'13:22.142',-0.14,-0.005,11111111110100100000000
'13:22.144',-0.11,0.03,11111111110110111110000
'13:22.147',-0.08,0.05,11111111111001011100000
'13:22.150',-0.09,0.045,11111111111000101000000
'13:22.153',-0.115,0.035,11111111110110100100000
'13:22.156',-0.14,0.01,11111111110100100000000
'13:22.158',-0.16,0.005,11111111110010111000000
'13:22.161',-0.16,0.01,11111111110010111000000
'13:22.164',-0.14,0.045,11111111110100100000000
'13:22.167',-0.13,0.06,11111111110101010110000
'13:22.169',-0.14,0.075,11111111110100100000000
'13:22.172',-0.165,0.08,11111111110010011110000
'13:22.175',-0.185,0.07,11111111110000110110000
'13:22.178',-0.18,0.085,11111111110001010000000
'13:22.181',-0.19,0.11,11111111110000011010000
'13:22.183',-0.185,0.145,11111111110000110110000
'13:22.186',-0.205,0.15,11111111101111001100000
'13:22.189',-0.22,0.115,11111111101101111110000
'13:22.192',-0.275,0.055,11111111101001011110000
'13:22.194',-0.285,0.015,11111111101000101000000
'13:22.197',-0.29,0.025,11111111101000001110000
'13:22.200',-0.3,0.055,11111111100111011010000
'13:22.203',-0.315,0.055,11111111100110001100000
'13:22.206',-0.32,0.045,11111111100101110010000
'13:22.208',-0.32,0.05,11111111100101110010000
'13:22.211',-0.315,0.07,11111111100110001100000
'13:22.214',-0.28,0.1,11111111101001000010000
'13:22.217',-0.29,0.11,11111111101000001110000
'13:22.219',-0.295,0.075,11111111100111110100000
'13:22.222',-0.3,0.05,11111111100111011010000
'13:22.225',-0.3,0.03,11111111100111011010000
'13:22.228',-0.29,0.045,11111111101000001110000
'13:22.231',-0.27,0.05,11111111101001111000000
'13:22.233',-0.26,0.055,11111111101010101100000
'13:22.236',-0.26,0.04,11111111101010101100000
'13:22.239',-0.27,0.035,11111111101001111000000
'13:22.242',-0.28,0.035,11111111101001000010000
'13:22.244',-0.275,0.02,11111111101001011110000
'13:22.247',-0.26,0.04,11111111101010101100000
'13:22.250',-0.245,0.035,11111111101011111010000
'13:22.253',-0.25,0.02,11111111101011100000000
'13:22.256',-0.28,0,11111111101001000010000
'13:22.258',-0.285,0.01,11111111101000101000000
'13:22.261',-0.285,0.035,11111111101000101000000
'13:22.264',-0.275,0.05,11111111101001011110000
'13:22.267',-0.26,0.04,11111111101010101100000
'13:22.269',-0.27,0.045,11111111101001111000000
'13:22.272',-0.275,0.03,11111111101001011110000
'13:22.275',-0.28,0.03,11111111101001000010000
'13:22.278',-0.28,0.025,11111111101001000010000
'13:22.281',-0.255,0.02,11111111101011000110000
'13:22.283',-0.265,0.025,11111111101010010010000
'13:22.286',-0.275,0.03,11111111101001011110000
'13:22.289',-0.28,0.06,11111111101001000010000
'13:22.292',-0.29,0.085,11111111101000001110000
'13:22.294',-0.28,0.08,11111111101001000010000
'13:22.297',-0.26,0.045,11111111101010101100000
'13:22.300',-0.26,-0.02,11111111101010101100000
'13:22.303',-0.285,-0.06,11111111101000101000000
'13:22.306',-0.3,-0.04,11111111100111011010000
'13:22.308',-0.295,0.01,11111111100111110100000
'13:22.311',-0.275,0.045,11111111101001011110000
'13:22.314',-0.26,0.06,11111111101010101100000
'13:22.317',-0.265,0.02,11111111101010010010000
'13:22.319',-0.27,-0.015,11111111101001111000000
'13:22.322',-0.28,-0.02,11111111101001000010000
'13:22.325',-0.265,0.025,11111111101010010010000
'13:22.328',-0.265,0.055,11111111101010010010000
'13:22.331',-0.245,0.04,11111111101011111010000
'13:22.333',-0.24,-0.015,11111111101100010100000
'13:22.336',-0.245,-0.045,11111111101011111010000
'13:22.339',-0.235,-0.04,11111111101100101110000
'13:22.342',-0.23,0.025,11111111101101001010000
'13:22.344',-0.215,0.07,11111111101110011000000
'13:22.347',-0.195,0.1,11111111110000000000000
'13:22.350',-0.175,0.07,11111111110001101010000
'13:22.353',-0.175,0.055,11111111110001101010000
'13:22.356',-0.155,0.015,11111111110011010010000
'13:22.358',-0.135,-0.015,11111111110100111100000
'13:22.361',-0.135,-0.015,11111111110100111100000
'13:22.364',-0.12,-0.005,11111111110110001010000
'13:22.367',-0.125,-0.005,11111111110101110000000
'13:22.369',-0.14,0.005,11111111110100100000000
'13:22.372',-0.165,0,11111111110010011110000
'13:22.375',-0.19,0.035,11111111110000011010000
'13:22.378',-0.18,0.055,11111111110001010000000
'13:22.381',-0.155,0.065,11111111110011010010000
'13:22.383',-0.155,0.065,11111111110011010010000
'13:22.386',-0.17,0.055,11111111110010000100000
'13:22.389',-0.18,0.055,11111111110001010000000
'13:22.392',-0.17,0.065,11111111110010000100000
'13:22.394',-0.16,0.075,11111111110010111000000
'13:22.397',-0.155,0.095,11111111110011010010000
'13:22.400',-0.15,0.095,11111111110011101100000
'13:22.403',-0.16,0.09,11111111110010111000000
'13:22.406',-0.19,0.075,11111111110000011010000
'13:22.408',-0.21,0.1,11111111101110110010000
'13:22.411',-0.195,0.125,11111111110000000000000
'13:22.414',-0.185,0.15,11111111110000110110000
'13:22.417',-0.17,0.16,11111111110010000100000
'13:22.419',-0.18,0.175,11111111110001010000000
'13:22.422',-0.195,0.215,11111111110000000000000
'13:22.425',-0.195,0.25,11111111110000000000000
'13:22.428',-0.185,0.265,11111111110000110110000
'13:22.431',-0.17,0.225,11111111110010000100000
'13:22.433',-0.18,0.135,11111111110001010000000
'13:22.436',-0.2,0.04,11111111101111100110000
'13:22.439',-0.215,-0.03,11111111101110011000000
'13:22.442',-0.22,-0.03,11111111101101111110000
'13:22.444',-0.205,-0.01,11111111101111001100000
'13:22.447',-0.185,0.045,11111111110000110110000
'13:22.450',-0.175,0.075,11111111110001101010000
'13:22.453',-0.18,0.09,11111111110001010000000
'13:22.456',-0.195,0.085,11111111110000000000000
'13:22.458',-0.19,0.095,11111111110000011010000
'13:22.461',-0.175,0.085,11111111110001101010000
'13:22.464',-0.165,0.1,11111111110010011110000
'13:22.467',-0.145,0.07,11111111110100000110000
'13:22.469',-0.135,0.07,11111111110100111100000
'13:22.472',-0.165,0.055,11111111110010011110000
'13:22.475',-0.145,0.07,11111111110100000110000
'13:22.478',-0.13,0.08,11111111110101010110000
'13:22.481',-0.115,0.095,11111111110110100100000
'13:22.483',-0.105,0.085,11111111110111011000000
'13:22.486',-0.125,0.065,11111111110101110000000
'13:22.489',-0.145,0.045,11111111110100000110000
'13:22.492',-0.14,0.04,11111111110100100000000
'13:22.494',-0.145,0.04,11111111110100000110000
'13:22.497',-0.135,0.055,11111111110100111100000
'13:22.500',-0.135,0.04,11111111110100111100000
'13:22.503',-0.15,0.03,11111111110011101100000
'13:22.506',-0.175,0.03,11111111110001101010000
'13:22.508',-0.175,0.065,11111111110001101010000
'13:22.511',-0.18,0.085,11111111110001010000000
'13:22.514',-0.175,0.095,11111111110001101010000
'13:22.517',-0.175,0.09,11111111110001101010000
'13:22.519',-0.19,0.055,11111111110000011010000
'13:22.522',-0.21,0.025,11111111101110110010000
'13:22.525',-0.24,0.015,11111111101100010100000
'13:22.528',-0.22,0.01,11111111101101111110000
'13:22.531',-0.19,0.045,11111111110000011010000
'13:22.533',-0.21,0.075,11111111101110110010000
'13:22.536',-0.195,0.11,11111111110000000000000
'13:22.539',-0.205,0.125,11111111101111001100000
'13:22.542',-0.235,0.115,11111111101100101110000
'13:22.544',-0.215,0.06,11111111101110011000000
'13:22.547',-0.2,-0.015,11111111101111100110000
'13:22.550',-0.195,-0.055,11111111110000000000000
'13:22.553',-0.2,-0.045,11111111101111100110000
'13:22.556',-0.245,-0.01,11111111101011111010000
'13:22.558',-0.245,0.005,11111111101011111010000
'13:22.561',-0.225,0.005,11111111101101100100000
'13:22.564',-0.215,-0.005,11111111101110011000000
'13:22.567',-0.21,-0.02,11111111101110110010000
'13:22.569',-0.21,-0.045,11111111101110110010000
'13:22.572',-0.225,-0.055,11111111101101100100000
'13:22.575',-0.23,-0.055,11111111101101001010000
'13:22.578',-0.245,-0.015,11111111101011111010000
'13:22.581',-0.225,0.005,11111111101101100100000
'13:22.583',-0.23,0.015,11111111101101001010000
'13:22.586',-0.24,-0.005,11111111101100010100000
'13:22.589',-0.27,-0.01,11111111101001111000000
'13:22.592',-0.275,0.01,11111111101001011110000
'13:22.594',-0.285,0.05,11111111101000101000000
'13:22.597',-0.29,0.09,11111111101000001110000
'13:22.600',-0.29,0.13,11111111101000001110000
'13:22.603',-0.305,0.115,11111111100111000000000
'13:22.606',-0.32,0.085,11111111100101110010000
'13:22.608',-0.33,0.03,11111111100100111100000
'13:22.611',-0.345,-0.03,11111111100011101110000
'13:22.614',-0.345,-0.135,11111111100011101110000
'13:22.617',-0.35,-0.295,11111111100011010100000
'13:22.619',-0.31,-0.465,11111111100110100110000
'13:22.622',-0.195,-0.625,11111111110000000000000
'13:22.625',0.005,-0.72,00000000000000011010000
'13:22.628',0.21,-0.73,00000000010001001100000
'13:22.631',0.415,-0.65,00000000100001111110000
'13:22.633',0.57,-0.565,00000000101110101100000
'13:22.636',0.665,-0.465,00000000110110011110000
'13:22.639',0.655,-0.38,00000000110101101010000
'13:22.642',0.485,-0.275,00000000100111101110000
'13:22.644',0.215,-0.175,00000000010001100110000
'13:22.647',-0.05,-0.115,11111111111011111000000
'13:22.650',-0.19,-0.055,11111111110000011010000
'13:22.653',-0.225,-0.005,11111111101101100100000
'13:22.656',-0.185,0.03,11111111110000110110000
'13:22.658',-0.115,0.1,11111111110110100100000
'13:22.661',-0.07,0.16,11111111111010010000000
'13:22.664',-0.055,0.195,11111111111011011110000
'13:22.667',-0.09,0.21,11111111111000101000000
'13:22.669',-0.105,0.175,11111111110111011000000
'13:22.672',-0.13,0.16,11111111110101010110000
'13:22.675',-0.125,0.17,11111111110101110000000
'13:22.678',-0.115,0.18,11111111110110100100000
'13:22.681',-0.095,0.18,11111111111000001100000
'13:22.683',-0.085,0.15,11111111111001000010000
'13:22.686',-0.085,0.14,11111111111001000010000
'13:22.689',-0.085,0.14,11111111111001000010000
'13:22.692',-0.09,0.15,11111111111000101000000
'13:22.694',-0.08,0.165,11111111111001011100000
'13:22.697',-0.06,0.17,11111111111011000100000
'13:22.700',-0.045,0.16,11111111111100010100000
'13:22.703',-0.05,0.15,11111111111011111000000
'13:22.706',-0.055,0.135,11111111111011011110000
'13:22.708',-0.05,0.135,11111111111011111000000
'13:22.711',-0.025,0.14,11111111111101111100000
'13:22.714',-0.005,0.145,11111111111111100100000
'13:22.717',-0.005,0.145,11111111111111100100000
'13:22.719',-0.02,0.145,11111111111110010110000
'13:22.722',-0.03,0.165,11111111111101100010000
'13:22.725',-0.025,0.19,11111111111101111100000
'13:22.728',-0.025,0.21,11111111111101111100000
'13:22.731',-0.01,0.255,11111111111111001010000
'13:22.733',-0.005,0.25,11111111111111100100000
'13:22.736',-0.015,0.215,11111111111110110000000
'13:22.739',-0.035,0.15,11111111111101001000000
'13:22.742',-0.055,0.095,11111111111011011110000
'13:22.744',-0.05,0.055,11111111111011111000000
'13:22.747',-0.05,0.06,11111111111011111000000
'13:22.750',-0.025,0.07,11111111111101111100000
'13:22.753',-0.03,0.07,11111111111101100010000
'13:22.756',-0.03,0.045,11111111111101100010000
'13:22.758',-0.04,0.04,11111111111100101110000
'13:22.761',-0.035,0.045,11111111111101001000000
'13:22.764',-0.025,0.065,11111111111101111100000
'13:22.767',-0.035,0.085,11111111111101001000000
'13:22.769',-0.035,0.11,11111111111101001000000
'13:22.772',-0.035,0.115,11111111111101001000000
'13:22.775',-0.045,0.12,11111111111100010100000
'13:22.778',-0.04,0.11,11111111111100101110000
'13:22.781',-0.045,0.09,11111111111100010100000
'13:22.783',-0.03,0.08,11111111111101100010000
'13:22.786',-0.05,0.06,11111111111011111000000
'13:22.789',-0.055,0.055,11111111111011011110000
'13:22.792',-0.055,0.085,11111111111011011110000
'13:22.794',-0.065,0.1,11111111111010101010000
'13:22.797',-0.05,0.125,11111111111011111000000
'13:22.800',-0.055,0.1,11111111111011011110000
'13:22.803',-0.06,0.09,11111111111011000100000
'13:22.806',-0.075,0.075,11111111111001110110000
'13:22.808',-0.08,0.1,11111111111001011100000
'13:22.811',-0.06,0.145,11111111111011000100000
'13:22.814',-0.055,0.185,11111111111011011110000
'13:22.817',-0.055,0.19,11111111111011011110000
'13:22.819',-0.07,0.13,11111111111010010000000
'13:22.822',-0.085,0.05,11111111111001000010000
'13:22.825',-0.11,-0.005,11111111110110111110000
'13:22.828',-0.09,-0.005,11111111111000101000000
'13:22.831',-0.105,0.025,11111111110111011000000
'13:22.833',-0.1,0.035,11111111110111110010000
'13:22.836',-0.115,0.055,11111111110110100100000
'13:22.839',-0.145,0.08,11111111110100000110000
'13:22.842',-0.16,0.095,11111111110010111000000
'13:22.844',-0.16,0.115,11111111110010111000000
'13:22.847',-0.17,0.12,11111111110010000100000
'13:22.850',-0.185,0.095,11111111110000110110000
'13:22.853',-0.215,0.065,11111111101110011000000
'13:22.856',-0.26,0.05,11111111101010101100000
'13:22.858',-0.26,0.06,11111111101010101100000
'13:22.861',-0.275,0.075,11111111101001011110000
'13:22.864',-0.295,0.07,11111111100111110100000
'13:22.867',-0.29,0.065,11111111101000001110000
'13:22.869',-0.31,0.065,11111111100110100110000
'13:22.872',-0.35,0.095,11111111100011010100000
'13:22.875',-0.35,0.13,11111111100011010100000
'13:22.878',-0.355,0.155,11111111100010111010000
'13:22.881',-0.35,0.18,11111111100011010100000
'13:22.883',-0.35,0.18,11111111100011010100000
'13:22.886',-0.35,0.17,11111111100011010100000
'13:22.889',-0.355,0.195,11111111100010111010000
'13:22.892',-0.315,0.23,11111111100110001100000
'13:22.894',-0.29,0.245,11111111101000001110000
'13:22.897',-0.275,0.22,11111111101001011110000
'13:22.900',-0.24,0.15,11111111101100010100000
'13:22.903',-0.23,0.105,11111111101101001010000
'13:22.906',-0.21,0.065,11111111101110110010000
'13:22.908',-0.205,0.085,11111111101111001100000
'13:22.911',-0.205,0.145,11111111101111001100000
'13:22.914',-0.21,0.185,11111111101110110010000
'13:22.917',-0.205,0.195,11111111101111001100000
'13:22.919',-0.21,0.21,11111111101110110010000
'13:22.922',-0.23,0.215,11111111101101001010000
'13:22.925',-0.225,0.215,11111111101101100100000
'13:22.928',-0.2,0.22,11111111101111100110000
'13:22.931',-0.15,0.18,11111111110011101100000
'13:22.933',-0.135,0.135,11111111110100111100000
'13:22.936',-0.135,0.1,11111111110100111100000
'13:22.939',-0.155,0.06,11111111110011010010000
'13:22.942',-0.165,0.07,11111111110010011110000
'13:22.944',-0.175,0.065,11111111110001101010000
'13:22.947',-0.165,0.08,11111111110010011110000
'13:22.950',-0.155,0.085,11111111110011010010000
'13:22.953',-0.165,0.095,11111111110010011110000
'13:22.956',-0.175,0.1,11111111110001101010000
'13:22.958',-0.19,0.11,11111111110000011010000
'13:22.961',-0.19,0.095,11111111110000011010000
'13:22.964',-0.18,0.095,11111111110001010000000
'13:22.967',-0.18,0.085,11111111110001010000000
'13:22.969',-0.185,0.08,11111111110000110110000
'13:22.972',-0.19,0.09,11111111110000011010000
'13:22.975',-0.21,0.095,11111111101110110010000
'13:22.978',-0.185,0.095,11111111110000110110000
'13:22.981',-0.185,0.075,11111111110000110110000
'13:22.983',-0.2,0.07,11111111101111100110000
'13:22.986',-0.195,0.05,11111111110000000000000
'13:22.989',-0.2,0.06,11111111101111100110000
'13:22.992',-0.2,0.065,11111111101111100110000
'13:22.994',-0.185,0.06,11111111110000110110000
'13:22.997',-0.17,0.045,11111111110010000100000
'13:23.000',-0.175,0.025,11111111110001101010000
'13:23.003',-0.18,0.04,11111111110001010000000
'13:23.006',-0.2,0.05,11111111101111100110000
'13:23.008',-0.2,0.095,11111111101111100110000
'13:23.011',-0.175,0.115,11111111110001101010000
'13:23.014',-0.16,0.135,11111111110010111000000
'13:23.017',-0.135,0.135,11111111110100111100000
'13:23.019',-0.15,0.115,11111111110011101100000
'13:23.022',-0.175,0.065,11111111110001101010000
'13:23.025',-0.2,0.035,11111111101111100110000
'13:23.028',-0.19,0.02,11111111110000011010000
'13:23.031',-0.17,0.04,11111111110010000100000
'13:23.033',-0.17,0.07,11111111110010000100000
'13:23.036',-0.16,0.09,11111111110010111000000
'13:23.039',-0.17,0.085,11111111110010000100000
'13:23.042',-0.185,0.1,11111111110000110110000
'13:23.044',-0.2,0.12,11111111101111100110000
'13:23.047',-0.24,0.105,11111111101100010100000
'13:23.050',-0.295,0.035,11111111100111110100000
'13:23.053',-0.315,-0.07,11111111100110001100000
'13:23.056',-0.235,-0.22,11111111101100101110000
'13:23.058',-0.08,-0.36,11111111111001011100000
'13:23.061',0.13,-0.49,00000000001010101000000
'13:23.064',0.37,-0.595,00000000011110010010000
'13:23.067',0.63,-0.605,00000000110011100110000
'13:23.069',0.875,-0.55,00000001000111101010000
'13:23.072',1.045,-0.475,00000001010101100110000
'13:23.075',1.065,-0.365,00000001010111001110000
'13:23.078',0.915,-0.28,00000001001010111100000
'13:23.081',0.66,-0.19,00000000110110000100000
'13:23.083',0.375,-0.095,00000000011110101110000
'13:23.086',0.155,-0.01,00000000001100101100000
'13:23.089',0.045,0.075,00000000000011101010000
'13:23.092',-0.04,0.125,11111111111100101110000
'13:23.094',-0.075,0.125,11111111111001110110000
'13:23.097',-0.13,0.07,11111111110101010110000
'13:23.100',-0.185,0.025,11111111110000110110000
'13:23.103',-0.285,-0.005,11111111101000101000000
'13:23.106',-0.355,-0.005,11111111100010111010000
'13:23.108',-0.38,-0.01,11111111100000110110000
'13:23.111',-0.39,0.01,11111111100000000010000
'13:23.114',-0.39,0.035,11111111100000000010000
'13:23.117',-0.355,0.06,11111111100010111010000
'13:23.119',-0.335,0.09,11111111100100100010000
'13:23.122',-0.32,0.12,11111111100101110010000
'13:23.125',-0.31,0.15,11111111100110100110000
'13:23.128',-0.275,0.15,11111111101001011110000
'13:23.131',-0.245,0.15,11111111101011111010000
'13:23.133',-0.23,0.12,11111111101101001010000
'13:23.136',-0.195,0.11,11111111110000000000000
'13:23.139',-0.205,0.095,11111111101111001100000
'13:23.142',-0.21,0.11,11111111101110110010000
'13:23.144',-0.175,0.13,11111111110001101010000
'13:23.147',-0.15,0.18,11111111110011101100000
'13:23.150',-0.135,0.22,11111111110100111100000
'13:23.153',-0.145,0.235,11111111110100000110000
'13:23.156',-0.155,0.17,11111111110011010010000
'13:23.158',-0.165,0.1,11111111110010011110000
'13:23.161',-0.14,0.02,11111111110100100000000
'13:23.164',-0.12,0.005,11111111110110001010000
'13:23.167',-0.105,0.01,11111111110111011000000
'13:23.169',-0.145,0.04,11111111110100000110000
'13:23.172',-0.15,0.055,11111111110011101100000
'13:23.175',-0.165,0.1,11111111110010011110000
'13:23.178',-0.15,0.13,11111111110011101100000
'13:23.181',-0.15,0.13,11111111110011101100000
'13:23.183',-0.15,0.095,11111111110011101100000
'13:23.186',-0.165,0.05,11111111110010011110000
'13:23.189',-0.18,0.035,11111111110001010000000
'13:23.192',-0.18,0.05,11111111110001010000000
'13:23.194',-0.165,0.095,11111111110010011110000
'13:23.197',-0.15,0.13,11111111110011101100000
'13:23.200',-0.15,0.11,11111111110011101100000
'13:23.203',-0.18,0.08,11111111110001010000000
'13:23.206',-0.21,0.05,11111111101110110010000
'13:23.208',-0.225,0.06,11111111101101100100000
'13:23.211',-0.205,0.075,11111111101111001100000
'13:23.214',-0.19,0.075,11111111110000011010000
'13:23.217',-0.185,0.07,11111111110000110110000
'13:23.219',-0.2,0.05,11111111101111100110000
'13:23.222',-0.215,0.065,11111111101110011000000
'13:23.225',-0.22,0.1,11111111101101111110000
'13:23.228',-0.215,0.1,11111111101110011000000
'13:23.231',-0.205,0.105,11111111101111001100000
'13:23.233',-0.195,0.085,11111111110000000000000
'13:23.236',-0.205,0.09,11111111101111001100000
'13:23.239',-0.225,0.06,11111111101101100100000
'13:23.242',-0.25,0.045,11111111101011100000000
'13:23.244',-0.245,0.01,11111111101011111010000
'13:23.247',-0.24,0.005,11111111101100010100000
'13:23.250',-0.235,0.02,11111111101100101110000
'13:23.253',-0.235,0.04,11111111101100101110000
'13:23.256',-0.27,0.06,11111111101001111000000
'13:23.258',-0.27,0.065,11111111101001111000000
'13:23.261',-0.265,0.075,11111111101010010010000
'13:23.264',-0.265,0.085,11111111101010010010000
'13:23.267',-0.26,0.1,11111111101010101100000
'13:23.269',-0.275,0.095,11111111101001011110000
'13:23.272',-0.29,0.08,11111111101000001110000
'13:23.275',-0.31,0.07,11111111100110100110000
'13:23.278',-0.325,0.07,11111111100101011000000
'13:23.281',-0.325,0.075,11111111100101011000000
'13:23.283',-0.345,0.08,11111111100011101110000
'13:23.286',-0.375,0.05,11111111100001010000000
'13:23.289',-0.4,0.03,11111111011111001110000
'13:23.292',-0.405,0.045,11111111011110110100000
'13:23.294',-0.425,0.065,11111111011101001010000
'13:23.297',-0.445,0.095,11111111011011100010000
'13:23.300',-0.475,0.11,11111111011001000100000
'13:23.303',-0.505,0.095,11111111010110101000000
'13:23.306',-0.515,0.08,11111111010101110010000
'13:23.308',-0.54,0.055,11111111010011110000000
'13:23.311',-0.545,0.025,11111111010011010110000
'13:23.314',-0.565,0.005,11111111010001101100000
'13:23.317',-0.565,0.005,11111111010001101100000
'13:23.319',-0.585,0.02,11111111010000000100000
'13:23.322',-0.585,0.03,11111111010000000100000
'13:23.325',-0.585,0.035,11111111010000000100000
'13:23.328',-0.555,0.06,11111111010010100010000
'13:23.331',-0.525,0.105,11111111010100111110000
'13:23.333',-0.505,0.115,11111111010110101000000
'13:23.336',-0.495,0.13,11111111010111011100000
'13:23.339',-0.49,0.15,11111111010111110110000
'13:23.342',-0.465,0.165,11111111011001111010000
'13:23.344',-0.415,0.16,11111111011110000000000
'13:23.347',-0.37,0.125,11111111100001101100000
'13:23.350',-0.36,0.1,11111111100010100000000
'13:23.353',-0.32,0.085,11111111100101110010000
'13:23.356',-0.33,0.115,11111111100100111100000
'13:23.358',-0.315,0.12,11111111100110001100000
'13:23.361',-0.305,0.105,11111111100111000000000
'13:23.364',-0.28,0.11,11111111101001000010000
'13:23.367',-0.245,0.12,11111111101011111010000
'13:23.369',-0.225,0.13,11111111101101100100000
'13:23.372',-0.21,0.125,11111111101110110010000
'13:23.375',-0.195,0.125,11111111110000000000000
'13:23.378',-0.18,0.14,11111111110001010000000
'13:23.381',-0.175,0.125,11111111110001101010000
'13:23.383',-0.18,0.085,11111111110001010000000
'13:23.386',-0.21,0.055,11111111101110110010000
'13:23.389',-0.22,-0.005,11111111101101111110000
'13:23.392',-0.23,-0.055,11111111101101001010000
'13:23.394',-0.195,-0.065,11111111110000000000000
'13:23.397',-0.17,-0.06,11111111110010000100000
'13:23.400',-0.175,-0.025,11111111110001101010000
'13:23.403',-0.175,0.005,11111111110001101010000
'13:23.406',-0.205,0.02,11111111101111001100000
'13:23.408',-0.22,0.045,11111111101101111110000
'13:23.411',-0.22,0.04,11111111101101111110000
'13:23.414',-0.22,0.05,11111111101101111110000
'13:23.417',-0.215,0.04,11111111101110011000000
'13:23.419',-0.23,0.02,11111111101101001010000
'13:23.422',-0.235,0.005,11111111101100101110000
'13:23.425',-0.23,0.015,11111111101101001010000
'13:23.428',-0.22,0.02,11111111101101111110000
'13:23.431',-0.215,0.03,11111111101110011000000
'13:23.433',-0.205,0.01,11111111101111001100000
'13:23.436',-0.215,-0.005,11111111101110011000000
'13:23.439',-0.235,-0.025,11111111101100101110000
'13:23.442',-0.245,-0.015,11111111101011111010000
'13:23.444',-0.235,0,11111111101100101110000
'13:23.447',-0.235,0.025,11111111101100101110000
'13:23.450',-0.24,0.03,11111111101100010100000
'13:23.453',-0.23,0.035,11111111101101001010000
'13:23.456',-0.245,0.045,11111111101011111010000
'13:23.458',-0.255,0.015,11111111101011000110000
'13:23.461',-0.255,0.015,11111111101011000110000
'13:23.464',-0.26,0.015,11111111101010101100000
'13:23.467',-0.255,0.025,11111111101011000110000
'13:23.469',-0.25,0.025,11111111101011100000000
'13:23.472',-0.275,0.005,11111111101001011110000
'13:23.475',-0.27,-0.02,11111111101001111000000
'13:23.478',-0.25,-0.015,11111111101011100000000
'13:23.481',-0.235,0.01,11111111101100101110000
'13:23.483',-0.23,0.015,11111111101101001010000
'13:23.486',-0.235,0.02,11111111101100101110000
'13:23.489',-0.25,0.01,11111111101011100000000
'13:23.492',-0.26,-0.015,11111111101010101100000
'13:23.494',-0.25,-0.02,11111111101011100000000
'13:23.497',-0.25,-0.025,11111111101011100000000
'13:23.500',-0.265,-0.05,11111111101010010010000
'13:23.503',-0.28,-0.045,11111111101001000010000
'13:23.506',-0.315,-0.045,11111111100110001100000
'13:23.508',-0.325,-0.03,11111111100101011000000
'13:23.511',-0.335,-0.01,11111111100100100010000
'13:23.514',-0.345,0.01,11111111100011101110000
'13:23.517',-0.37,0.02,11111111100001101100000
'13:23.519',-0.405,-0.005,11111111011110110100000
'13:23.522',-0.425,-0.03,11111111011101001010000
'13:23.525',-0.455,-0.04,11111111011010101110000
'13:23.528',-0.45,-0.035,11111111011011001000000
'13:23.531',-0.44,-0.015,11111111011011111100000
'13:23.533',-0.46,0.025,11111111011010010100000
'13:23.536',-0.47,0.045,11111111011001011110000
'13:23.539',-0.495,0.055,11111111010111011100000
'13:23.542',-0.51,0.045,11111111010110001110000
'13:23.544',-0.505,0.02,11111111010110101000000
'13:23.547',-0.48,0.005,11111111011000101010000
'13:23.550',-0.47,-0.035,11111111011001011110000
'13:23.553',-0.455,-0.07,11111111011010101110000
'13:23.556',-0.45,-0.075,11111111011011001000000
'13:23.558',-0.41,-0.04,11111111011110011010000
'13:23.561',-0.385,0.03,11111111100000011100000
'13:23.564',-0.36,0.09,11111111100010100000000
'13:23.567',-0.335,0.115,11111111100100100010000
'13:23.569',-0.325,0.11,11111111100101011000000
'13:23.572',-0.315,0.075,11111111100110001100000
'13:23.575',-0.3,0.05,11111111100111011010000
'13:23.578',-0.29,0.03,11111111101000001110000
'13:23.581',-0.29,0.035,11111111101000001110000
'13:23.583',-0.305,0.055,11111111100111000000000
'13:23.586',-0.3,0.07,11111111100111011010000
'13:23.589',-0.29,0.055,11111111101000001110000
'13:23.592',-0.275,0.07,11111111101001011110000
'13:23.594',-0.245,0.075,11111111101011111010000
'13:23.597',-0.215,0.08,11111111101110011000000
'13:23.600',-0.19,0.065,11111111110000011010000
'13:23.603',-0.195,0.045,11111111110000000000000
'13:23.606',-0.205,0.04,11111111101111001100000
'13:23.608',-0.2,0.065,11111111101111100110000
'13:23.611',-0.195,0.085,11111111110000000000000
'13:23.614',-0.18,0.105,11111111110001010000000
'13:23.617',-0.185,0.13,11111111110000110110000
'13:23.619',-0.195,0.155,11111111110000000000000
'13:23.622',-0.215,0.155,11111111101110011000000
'13:23.625',-0.22,0.15,11111111101101111110000
'13:23.628',-0.22,0.13,11111111101101111110000
'13:23.631',-0.215,0.08,11111111101110011000000
'13:23.633',-0.245,-0.08,11111111101011111010000
'13:23.636',-0.25,-0.315,11111111101011100000000
'13:23.639',-0.225,-0.535,11111111101101100100000
'13:23.642',-0.13,-0.69,11111111110101010110000
'13:23.644',0.015,-0.73,00000000000001001110000
'13:23.647',0.215,-0.69,00000000010001100110000
'13:23.650',0.38,-0.615,00000000011111001000000
'13:23.653',0.5,-0.555,00000000101000111100000
'13:23.656',0.495,-0.47,00000000101000100010000
'13:23.658',0.32,-0.37,00000000011010001100000
'13:23.661',-0.01,-0.255,11111111111111001010000
'13:23.664',-0.32,-0.135,11111111100101110010000
'13:23.667',-0.5,-0.01,11111111010111000010000
'13:23.669',-0.535,0.065,11111111010100001010000
'13:23.672',-0.46,0.065,11111111011010010100000
'13:23.675',-0.35,0.055,11111111100011010100000
'13:23.678',-0.245,0.05,11111111101011111010000
'13:23.681',-0.215,0.07,11111111101110011000000
'13:23.683',-0.215,0.065,11111111101110011000000
'13:23.686',-0.25,0.075,11111111101011100000000
'13:23.689',-0.27,0.09,11111111101001111000000
'13:23.692',-0.28,0.09,11111111101001000010000
'13:23.694',-0.27,0.065,11111111101001111000000
'13:23.697',-0.26,0.025,11111111101010101100000
'13:23.700',-0.265,-0.015,11111111101010010010000
'13:23.703',-0.285,-0.035,11111111101000101000000
'13:23.706',-0.285,-0.01,11111111101000101000000
'13:23.708',-0.28,0.025,11111111101001000010000
'13:23.711',-0.28,0.06,11111111101001000010000
'13:23.714',-0.28,0.07,11111111101001000010000
'13:23.717',-0.275,0.055,11111111101001011110000
'13:23.719',-0.285,0.02,11111111101000101000000
'13:23.722',-0.305,-0.02,11111111100111000000000
'13:23.725',-0.32,-0.03,11111111100101110010000
'13:23.728',-0.325,-0.015,11111111100101011000000
'13:23.731',-0.31,-0.01,11111111100110100110000
'13:23.733',-0.305,0.02,11111111100111000000000
'13:23.736',-0.3,0.01,11111111100111011010000
'13:23.739',-0.335,0,11111111100100100010000
'13:23.742',-0.36,-0.01,11111111100010100000000
'13:23.744',-0.37,-0.015,11111111100001101100000
'13:23.747',-0.375,0.005,11111111100001010000000
'13:23.750',-0.39,0.015,11111111100000000010000
'13:23.753',-0.4,0.015,11111111011111001110000
'13:23.756',-0.425,0.025,11111111011101001010000
'13:23.758',-0.43,0.035,11111111011100110000000
'13:23.761',-0.435,0.04,11111111011100010110000
'13:23.764',-0.455,0.03,11111111011010101110000
'13:23.767',-0.465,0.02,11111111011001111010000
'13:23.769',-0.485,0.005,11111111011000010000000
'13:23.772',-0.5,-0.015,11111111010111000010000
'13:23.775',-0.485,-0.01,11111111011000010000000
'13:23.778',-0.46,0,11111111011010010100000
'13:23.781',-0.415,0.015,11111111011110000000000
'13:23.783',-0.38,0.025,11111111100000110110000
'13:23.786',-0.355,0.045,11111111100010111010000
'13:23.789',-0.36,0.07,11111111100010100000000
'13:23.792',-0.37,0.095,11111111100001101100000
'13:23.794',-0.335,0.105,11111111100100100010000
'13:23.797',-0.29,0.135,11111111101000001110000
'13:23.800',-0.26,0.15,11111111101010101100000
'13:23.803',-0.25,0.145,11111111101011100000000
'13:23.806',-0.26,0.145,11111111101010101100000
'13:23.808',-0.24,0.13,11111111101100010100000
'13:23.811',-0.215,0.145,11111111101110011000000
'13:23.814',-0.2,0.165,11111111101111100110000
'13:23.817',-0.17,0.155,11111111110010000100000
'13:23.819',-0.165,0.12,11111111110010011110000
'13:23.822',-0.185,0.1,11111111110000110110000
'13:23.825',-0.19,0.11,11111111110000011010000
'13:23.828',-0.19,0.115,11111111110000011010000
'13:23.831',-0.18,0.13,11111111110001010000000
'13:23.833',-0.175,0.115,11111111110001101010000
'13:23.836',-0.185,0.09,11111111110000110110000
'13:23.839',-0.2,0.065,11111111101111100110000
'13:23.842',-0.215,0.055,11111111101110011000000
'13:23.844',-0.21,0.075,11111111101110110010000
'13:23.847',-0.205,0.095,11111111101111001100000
'13:23.850',-0.21,0.095,11111111101110110010000
'13:23.853',-0.215,0.09,11111111101110011000000
'13:23.856',-0.23,0.07,11111111101101001010000
'13:23.858',-0.24,0.045,11111111101100010100000
'13:23.861',-0.235,0.04,11111111101100101110000
'13:23.864',-0.26,0.05,11111111101010101100000
'13:23.867',-0.27,0.06,11111111101001111000000
'13:23.869',-0.29,0.06,11111111101000001110000
'13:23.872',-0.29,0.065,11111111101000001110000
'13:23.875',-0.3,0.08,11111111100111011010000
'13:23.878',-0.305,0.08,11111111100111000000000
'13:23.881',-0.29,0.065,11111111101000001110000
'13:23.883',-0.3,0.005,11111111100111011010000
'13:23.886',-0.32,-0.03,11111111100101110010000
'13:23.889',-0.36,-0.04,11111111100010100000000
'13:23.892',-0.38,-0.02,11111111100000110110000
'13:23.894',-0.365,0.015,11111111100010000110000
'13:23.897',-0.37,0.06,11111111100001101100000
'13:23.900',-0.365,0.065,11111111100010000110000
'13:23.903',-0.375,0.04,11111111100001010000000
'13:23.906',-0.4,0.035,11111111011111001110000
'13:23.908',-0.42,0.04,11111111011101100100000
'13:23.911',-0.41,0.055,11111111011110011010000
'13:23.914',-0.415,0.065,11111111011110000000000
'13:23.917',-0.41,0.075,11111111011110011010000
'13:23.919',-0.43,0.08,11111111011100110000000
'13:23.922',-0.45,0.08,11111111011011001000000
'13:23.925',-0.445,0.085,11111111011011100010000
'13:23.928',-0.445,0.07,11111111011011100010000
'13:23.931',-0.43,0.05,11111111011100110000000
'13:23.933',-0.42,0.04,11111111011101100100000
'13:23.936',-0.43,0.04,11111111011100110000000
'13:23.939',-0.445,0.045,11111111011011100010000
'13:23.942',-0.45,0.07,11111111011011001000000
'13:23.944',-0.445,0.07,11111111011011100010000
'13:23.947',-0.43,0.055,11111111011100110000000
'13:23.950',-0.43,0.035,11111111011100110000000
'13:23.953',-0.445,0,11111111011011100010000
'13:23.956',-0.465,0.005,11111111011001111010000
'13:23.958',-0.485,0.035,11111111011000010000000
'13:23.961',-0.45,0.055,11111111011011001000000
'13:23.964',-0.43,0.065,11111111011100110000000
'13:23.967',-0.445,0.05,11111111011011100010000
'13:23.969',-0.46,0.005,11111111011010010100000
'13:23.972',-0.485,-0.05,11111111011000010000000
'13:23.975',-0.48,-0.07,11111111011000101010000
'13:23.978',-0.485,-0.045,11111111011000010000000
'13:23.981',-0.505,0,11111111010110101000000
'13:23.983',-0.51,-0.005,11111111010110001110000
'13:23.986',-0.54,-0.015,11111111010011110000000
'13:23.989',-0.555,-0.07,11111111010010100010000
'13:23.992',-0.57,-0.09,11111111010001010010000
'13:23.994',-0.59,-0.08,11111111001111101010000
'13:23.997',-0.565,-0.055,11111111010001101100000
'13:24.000',-0.57,-0.055,11111111010001010010000
'13:24.003',-0.565,-0.03,11111111010001101100000
'13:24.006',-0.55,-0.02,11111111010010111100000
'13:24.008',-0.53,0.02,11111111010100100100000
'13:24.011',-0.49,0.045,11111111010111110110000
'13:24.014',-0.45,0.07,11111111011011001000000
'13:24.017',-0.42,0.075,11111111011101100100000
'13:24.019',-0.4,0.075,11111111011111001110000
'13:24.022',-0.385,0.07,11111111100000011100000
'13:24.025',-0.35,0.085,11111111100011010100000
'13:24.028',-0.295,0.1,11111111100111110100000
'13:24.031',-0.25,0.095,11111111101011100000000
'13:24.033',-0.225,0.095,11111111101101100100000
'13:24.036',-0.225,0.095,11111111101101100100000
'13:24.039',-0.225,0.075,11111111101101100100000
'13:24.042',-0.23,0.07,11111111101101001010000
'13:24.044',-0.22,0.08,11111111101101111110000
'13:24.047',-0.21,0.075,11111111101110110010000
'13:24.050',-0.19,0.075,11111111110000011010000
'13:24.053',-0.18,0.065,11111111110001010000000
'13:24.056',-0.195,0.06,11111111110000000000000
'13:24.058',-0.205,0.065,11111111101111001100000
'13:24.061',-0.21,0.07,11111111101110110010000
'13:24.064',-0.19,0.08,11111111110000011010000
'13:24.067',-0.18,0.065,11111111110001010000000
'13:24.069',-0.185,0.05,11111111110000110110000
'13:24.072',-0.205,0.05,11111111101111001100000
'13:24.075',-0.21,0.08,11111111101110110010000
'13:24.078',-0.215,0.105,11111111101110011000000
'13:24.081',-0.205,0.145,11111111101111001100000
'13:24.083',-0.205,0.165,11111111101111001100000
'13:24.086',-0.195,0.145,11111111110000000000000
'13:24.089',-0.2,0.07,11111111101111100110000
'13:24.092',-0.19,0.02,11111111110000011010000
'13:24.094',-0.2,0,11111111101111100110000
'13:24.097',-0.18,0.03,11111111110001010000000
'13:24.100',-0.175,0.05,11111111110001101010000
'13:24.103',-0.185,0.055,11111111110000110110000
'13:24.106',-0.195,0.035,11111111110000000000000
'13:24.108',-0.215,0.025,11111111101110011000000
'13:24.111',-0.2,0.025,11111111101111100110000
'13:24.114',-0.19,0.02,11111111110000011010000
'13:24.117',-0.185,-0.01,11111111110000110110000
'13:24.119',-0.195,-0.01,11111111110000000000000
'13:24.122',-0.215,-0.01,11111111101110011000000
'13:24.125',-0.21,0,11111111101110110010000
'13:24.128',-0.19,0.02,11111111110000011010000
'13:24.131',-0.175,0.025,11111111110001101010000
'13:24.133',-0.185,0.03,11111111110000110110000
'13:24.136',-0.19,0.015,11111111110000011010000
'13:24.139',-0.21,0.015,11111111101110110010000
'13:24.142',-0.22,0.015,11111111101101111110000
'13:24.144',-0.205,0.025,11111111101111001100000
'13:24.147',-0.21,0.035,11111111101110110010000
'13:24.150',-0.2,0.025,11111111101111100110000
'13:24.153',-0.2,0.01,11111111101111100110000
'13:24.156',-0.21,0.02,11111111101110110010000
'13:24.158',-0.22,0.035,11111111101101111110000
'13:24.161',-0.22,0.065,11111111101101111110000
'13:24.164',-0.215,0.065,11111111101110011000000
'13:24.167',-0.22,0.03,11111111101101111110000
'13:24.169',-0.23,0.015,11111111101101001010000
'13:24.172',-0.245,0,11111111101011111010000
'13:24.175',-0.25,0.01,11111111101011100000000
'13:24.178',-0.265,0.03,11111111101010010010000
'13:24.181',-0.25,0.03,11111111101011100000000
'13:24.183',-0.255,0.025,11111111101011000110000
'13:24.186',-0.245,-0.005,11111111101011111010000
'13:24.189',-0.28,-0.02,11111111101001000010000
'13:24.192',-0.295,-0.005,11111111100111110100000
'13:24.194',-0.32,0.015,11111111100101110010000
'13:24.197',-0.345,0.04,11111111100011101110000
'13:24.200',-0.35,0.055,11111111100011010100000
'13:24.203',-0.365,0.05,11111111100010000110000
'13:24.206',-0.41,0.045,11111111011110011010000
'13:24.208',-0.425,0.03,11111111011101001010000
'13:24.211',-0.42,0.025,11111111011101100100000
'13:24.214',-0.435,0.025,11111111011100010110000
'13:24.217',-0.44,-0.005,11111111011011111100000
'13:24.219',-0.455,-0.045,11111111011010101110000
'13:24.222',-0.455,-0.07,11111111011010101110000
'13:24.225',-0.445,-0.06,11111111011011100010000
'13:24.228',-0.41,-0.005,11111111011110011010000
'13:24.231',-0.355,0.065,11111111100010111010000
'13:24.233',-0.33,0.125,11111111100100111100000
'13:24.236',-0.315,0.15,11111111100110001100000
'13:24.239',-0.315,0.14,11111111100110001100000
'13:24.242',-0.285,0.125,11111111101000101000000
'13:24.244',-0.24,0.095,11111111101100010100000
'13:24.247',-0.165,0.085,11111111110010011110000
'13:24.250',-0.13,0.075,11111111110101010110000
'13:24.253',-0.115,0.075,11111111110110100100000
'13:24.256',-0.115,0.09,11111111110110100100000
'13:24.258',-0.11,0.13,11111111110110111110000
'13:24.261',-0.095,0.165,11111111111000001100000
'13:24.264',-0.08,0.18,11111111111001011100000
'13:24.267',-0.07,0.14,11111111111010010000000
'13:24.269',-0.08,0.095,11111111111001011100000
'13:24.272',-0.12,0.065,11111111110110001010000
'13:24.275',-0.16,0.01,11111111110010111000000
'13:24.278',-0.155,-0.07,11111111110011010010000
'13:24.281',-0.12,-0.185,11111111110110001010000
'13:24.283',-0.005,-0.37,11111111111111100100000
'13:24.286',0.18,-0.56,00000000001110101110000
'13:24.289',0.385,-0.73,00000000011111100010000
'13:24.292',0.6,-0.775,00000000110001001000000
'13:24.294',0.76,-0.715,00000000111110010000000
'13:24.297',0.785,-0.6,00000001000000010010000
'13:24.300',0.615,-0.46,00000000110010011000000
'13:24.303',0.285,-0.34,00000000010111010110000
'13:24.306',-0.065,-0.235,11111111111010101010000
'13:24.308',-0.26,-0.105,11111111101010101100000
'13:24.311',-0.33,0.02,11111111100100111100000
'13:24.314',-0.275,0.105,11111111101001011110000
'13:24.317',-0.215,0.14,11111111101110011000000
'13:24.319',-0.14,0.145,11111111110100100000000
'13:24.322',-0.1,0.14,11111111110111110010000
'13:24.325',-0.1,0.165,11111111110111110010000
'13:24.328',-0.105,0.175,11111111110111011000000
'13:24.331',-0.105,0.175,11111111110111011000000
'13:24.333',-0.13,0.135,11111111110101010110000
'13:24.336',-0.145,0.12,11111111110100000110000
'13:24.339',-0.155,0.095,11111111110011010010000
'13:24.342',-0.155,0.095,11111111110011010010000
'13:24.344',-0.145,0.1,11111111110100000110000
'13:24.347',-0.135,0.12,11111111110100111100000
'13:24.350',-0.13,0.125,11111111110101010110000
'13:24.353',-0.13,0.115,11111111110101010110000
'13:24.356',-0.135,0.135,11111111110100111100000
'13:24.358',-0.15,0.16,11111111110011101100000
'13:24.361',-0.15,0.15,11111111110011101100000
'13:24.364',-0.135,0.115,11111111110100111100000
'13:24.367',-0.125,0.07,11111111110101110000000
'13:24.369',-0.14,0.04,11111111110100100000000
'13:24.372',-0.16,0.05,11111111110010111000000
'13:24.375',-0.17,0.05,11111111110010000100000
'13:24.378',-0.16,0.095,11111111110010111000000
'13:24.381',-0.145,0.1,11111111110100000110000
'13:24.383',-0.155,0.08,11111111110011010010000
'13:24.386',-0.15,0.05,11111111110011101100000
'13:24.389',-0.185,0.05,11111111110000110110000
'13:24.392',-0.18,0.065,11111111110001010000000
'13:24.394',-0.18,0.085,11111111110001010000000
'13:24.397',-0.17,0.105,11111111110010000100000
'13:24.400',-0.155,0.085,11111111110011010010000
'13:24.403',-0.165,0.06,11111111110010011110000
'13:24.406',-0.165,0.03,11111111110010011110000
'13:24.408',-0.175,0.015,11111111110001101010000
'13:24.411',-0.18,0.015,11111111110001010000000
'13:24.414',-0.18,0.045,11111111110001010000000
'13:24.417',-0.205,0.055,11111111101111001100000
'13:24.419',-0.19,0.045,11111111110000011010000
'13:24.422',-0.22,0.03,11111111101101111110000
'13:24.425',-0.215,0.02,11111111101110011000000
'13:24.428',-0.21,0.015,11111111101110110010000
'13:24.431',-0.235,0.035,11111111101100101110000
'13:24.433',-0.225,0.045,11111111101101100100000
'13:24.436',-0.245,0.05,11111111101011111010000
'13:24.439',-0.275,0.03,11111111101001011110000
'13:24.442',-0.295,0.02,11111111100111110100000
'13:24.444',-0.315,0.025,11111111100110001100000
'13:24.447',-0.32,0.04,11111111100101110010000
'13:24.450',-0.315,0.04,11111111100110001100000
'13:24.453',-0.32,0.03,11111111100101110010000
'13:24.456',-0.34,0.015,11111111100100001000000
'13:24.458',-0.355,0.015,11111111100010111010000
'13:24.461',-0.35,0.01,11111111100011010100000
'13:24.464',-0.33,0.015,11111111100100111100000
'13:24.467',-0.325,0.025,11111111100101011000000
'13:24.469',-0.345,0.025,11111111100011101110000
'13:24.472',-0.35,0.05,11111111100011010100000
'13:24.475',-0.34,0.105,11111111100100001000000
'13:24.478',-0.295,0.145,11111111100111110100000
'13:24.481',-0.25,0.175,11111111101011100000000
'13:24.483',-0.2,0.19,11111111101111100110000
'13:24.486',-0.175,0.21,11111111110001101010000
'13:24.489',-0.17,0.19,11111111110010000100000
'13:24.492',-0.13,0.195,11111111110101010110000
'13:24.494',-0.085,0.18,11111111111001000010000
'13:24.497',-0.065,0.165,11111111111010101010000
'13:24.500',-0.07,0.12,11111111111010010000000
'13:24.503',-0.095,0.085,11111111111000001100000
'13:24.506',-0.125,0.085,11111111110101110000000
'13:24.508',-0.13,0.1,11111111110101010110000
'13:24.511',-0.135,0.13,11111111110100111100000
'13:24.514',-0.13,0.135,11111111110101010110000
'13:24.517',-0.115,0.115,11111111110110100100000
'13:24.519',-0.14,0.095,11111111110100100000000
'13:24.522',-0.17,0.09,11111111110010000100000
'13:24.525',-0.175,0.085,11111111110001101010000
'13:24.528',-0.175,0.105,11111111110001101010000
'13:24.531',-0.18,0.14,11111111110001010000000
'13:24.533',-0.19,0.15,11111111110000011010000
'13:24.536',-0.2,0.145,11111111101111100110000
'13:24.539',-0.23,0.125,11111111101101001010000
'13:24.542',-0.235,0.105,11111111101100101110000
'13:24.544',-0.23,0.08,11111111101101001010000
'13:24.547',-0.22,0.075,11111111101101111110000
'13:24.550',-0.23,0.09,11111111101101001010000
'13:24.553',-0.235,0.095,11111111101100101110000
'13:24.556',-0.255,0.095,11111111101011000110000
'13:24.558',-0.27,0.115,11111111101001111000000
'13:24.561',-0.265,0.115,11111111101010010010000
'13:24.564',-0.265,0.085,11111111101010010010000
'13:24.567',-0.26,0.07,11111111101010101100000
'13:24.569',-0.255,0.035,11111111101011000110000
'13:24.572',-0.27,0.04,11111111101001111000000
'13:24.575',-0.28,0.03,11111111101001000010000
'13:24.578',-0.28,0.04,11111111101001000010000
'13:24.581',-0.265,0.055,11111111101010010010000
'13:24.583',-0.27,0.055,11111111101001111000000
'13:24.586',-0.275,0.045,11111111101001011110000
'13:24.589',-0.28,0.035,11111111101001000010000
'13:24.592',-0.305,0.05,11111111100111000000000
'13:24.594',-0.3,0.055,11111111100111011010000
'13:24.597',-0.29,0.065,11111111101000001110000
'13:24.600',-0.29,0.055,11111111101000001110000
'13:24.603',-0.295,0.025,11111111100111110100000
'13:24.606',-0.295,0.025,11111111100111110100000
'13:24.608',-0.32,0.055,11111111100101110010000
'13:24.611',-0.31,0.08,11111111100110100110000
'13:24.614',-0.3,0.12,11111111100111011010000
'13:24.617',-0.295,0.135,11111111100111110100000
'13:24.619',-0.285,0.11,11111111101000101000000
'13:24.622',-0.315,0.07,11111111100110001100000
'13:24.625',-0.315,0.035,11111111100110001100000
'13:24.628',-0.31,-0.005,11111111100110100110000
'13:24.631',-0.285,0,11111111101000101000000
'13:24.633',-0.3,0.005,11111111100111011010000
'13:24.636',-0.3,0.035,11111111100111011010000
'13:24.639',-0.32,0.06,11111111100101110010000
'13:24.642',-0.305,0.09,11111111100111000000000
'13:24.644',-0.3,0.085,11111111100111011010000
'13:24.647',-0.3,0.07,11111111100111011010000
'13:24.650',-0.295,0.015,11111111100111110100000
'13:24.653',-0.305,-0.01,11111111100111000000000
'13:24.656',-0.315,-0.015,11111111100110001100000
'13:24.658',-0.33,0.01,11111111100100111100000
'13:24.661',-0.32,0.03,11111111100101110010000
'13:24.664',-0.32,0.035,11111111100101110010000
'13:24.667',-0.33,0.02,11111111100100111100000
'13:24.669',-0.345,0.035,11111111100011101110000
'13:24.672',-0.38,0.01,11111111100000110110000
'13:24.675',-0.4,0,11111111011111001110000
'13:24.678',-0.425,-0.03,11111111011101001010000
'13:24.681',-0.43,-0.04,11111111011100110000000
'13:24.683',-0.42,-0.035,11111111011101100100000
'13:24.686',-0.43,-0.02,11111111011100110000000
'13:24.689',-0.445,0.005,11111111011011100010000
'13:24.692',-0.475,0.005,11111111011001000100000
'13:24.694',-0.48,-0.015,11111111011000101010000
'13:24.697',-0.465,-0.04,11111111011001111010000
'13:24.700',-0.46,-0.055,11111111011010010100000
'13:24.703',-0.45,-0.065,11111111011011001000000
'13:24.706',-0.455,-0.025,11111111011010101110000
'13:24.708',-0.46,0.03,11111111011010010100000
'13:24.711',-0.42,0.095,11111111011101100100000
'13:24.714',-0.395,0.13,11111111011111101000000
'13:24.717',-0.35,0.15,11111111100011010100000
'13:24.719',-0.345,0.145,11111111100011101110000
'13:24.722',-0.31,0.115,11111111100110100110000
'13:24.725',-0.27,0.11,11111111101001111000000
'13:24.728',-0.22,0.11,11111111101101111110000
'13:24.731',-0.2,0.115,11111111101111100110000
'13:24.733',-0.17,0.075,11111111110010000100000
'13:24.736',-0.165,0.03,11111111110010011110000
'13:24.739',-0.165,0.02,11111111110010011110000
'13:24.742',-0.155,0.025,11111111110011010010000
'13:24.744',-0.155,0.055,11111111110011010010000
'13:24.747',-0.145,0.075,11111111110100000110000
'13:24.750',-0.15,0.075,11111111110011101100000
'13:24.753',-0.17,0.04,11111111110010000100000
'13:24.756',-0.18,0.02,11111111110001010000000
'13:24.758',-0.185,0.025,11111111110000110110000
'13:24.761',-0.175,0.06,11111111110001101010000
'13:24.764',-0.16,0.085,11111111110010111000000
'13:24.767',-0.18,0.075,11111111110001010000000
'13:24.769',-0.195,0.055,11111111110000000000000
'13:24.772',-0.23,0.015,11111111101101001010000
'13:24.775',-0.22,0,11111111101101111110000
'13:24.778',-0.21,0.015,11111111101110110010000
'13:24.781',-0.17,0.04,11111111110010000100000
'13:24.783',-0.17,0.04,11111111110010000100000
'13:24.786',-0.18,0.03,11111111110001010000000
'13:24.789',-0.19,0.015,11111111110000011010000
'13:24.792',-0.2,0.015,11111111101111100110000
'13:24.794',-0.18,0.05,11111111110001010000000
'13:24.797',-0.175,0.085,11111111110001101010000
'13:24.800',-0.155,0.08,11111111110011010010000
'13:24.803',-0.175,0.06,11111111110001101010000
'13:24.806',-0.185,0.025,11111111110000110110000
'13:24.808',-0.185,-0.005,11111111110000110110000
'13:24.811',-0.18,0.005,11111111110001010000000
'13:24.814',-0.175,0.03,11111111110001101010000
'13:24.817',-0.175,0.035,11111111110001101010000
'13:24.819',-0.175,0.045,11111111110001101010000
'13:24.822',-0.18,0.055,11111111110001010000000
'13:24.825',-0.2,0.035,11111111101111100110000
'13:24.828',-0.18,0.04,11111111110001010000000
'13:24.831',-0.175,0.03,11111111110001101010000
'13:24.833',-0.185,0.02,11111111110000110110000
'13:24.836',-0.195,0.015,11111111110000000000000
'13:24.839',-0.195,0.03,11111111110000000000000
'13:24.842',-0.2,0.06,11111111101111100110000
'13:24.844',-0.185,0.07,11111111110000110110000
'13:24.847',-0.185,0.055,11111111110000110110000
'13:24.850',-0.2,0.03,11111111101111100110000
'13:24.853',-0.21,0.01,11111111101110110010000
'13:24.856',-0.205,0.01,11111111101111001100000
'13:24.858',-0.205,0.035,11111111101111001100000
'13:24.861',-0.185,0.045,11111111110000110110000
'13:24.864',-0.175,0.08,11111111110001101010000
'13:24.867',-0.17,0.11,11111111110010000100000
'13:24.869',-0.19,0.17,11111111110000011010000
'13:24.872',-0.205,0.18,11111111101111001100000
'13:24.875',-0.225,0.15,11111111101101100100000
'13:24.878',-0.205,0.08,11111111101111001100000
'13:24.881',-0.215,-0.005,11111111101110011000000
'13:24.883',-0.235,-0.145,11111111101100101110000
'13:24.886',-0.26,-0.335,11111111101010101100000
'13:24.889',-0.21,-0.55,11111111101110110010000
'13:24.892',-0.095,-0.695,11111111111000001100000
'13:24.894',0.095,-0.8,00000000000111110010000
'13:24.897',0.31,-0.83,00000000011001011000000
'13:24.900',0.455,-0.795,00000000100101010000000
'13:24.903',0.53,-0.71,00000000101011011010000
'13:24.906',0.435,-0.59,00000000100011101000000
'13:24.908',0.16,-0.44,00000000001101000110000
'13:24.911',-0.165,-0.295,11111111110010011110000
'13:24.914',-0.425,-0.16,11111111011101001010000
'13:24.917',-0.56,-0.025,11111111010010000110000
'13:24.919',-0.59,0.04,11111111001111101010000
'13:24.922',-0.575,0.06,11111111010000111000000
'13:24.925',-0.5,0.05,11111111010111000010000
'13:24.928',-0.445,0.04,11111111011011100010000
'13:24.931',-0.405,0.035,11111111011110110100000
'13:24.933',-0.4,0.05,11111111011111001110000
'13:24.936',-0.39,0.09,11111111100000000010000
'13:24.939',-0.405,0.15,11111111011110110100000
'13:24.942',-0.385,0.2,11111111100000011100000
'13:24.944',-0.345,0.22,11111111100011101110000
'13:24.947',-0.295,0.205,11111111100111110100000
'13:24.950',-0.265,0.155,11111111101010010010000
'13:24.953',-0.2,0.1,11111111101111100110000
'13:24.956',-0.185,0.085,11111111110000110110000
'13:24.958',-0.15,0.105,11111111110011101100000
'13:24.961',-0.13,0.12,11111111110101010110000
'13:24.964',-0.1,0.14,11111111110111110010000
'13:24.967',-0.105,0.13,11111111110111011000000
'13:24.969',-0.095,0.13,11111111111000001100000
'13:24.972',-0.11,0.12,11111111110110111110000
'13:24.975',-0.135,0.12,11111111110100111100000
'13:24.978',-0.125,0.11,11111111110101110000000
'13:24.981',-0.11,0.105,11111111110110111110000
'13:24.983',-0.115,0.09,11111111110110100100000
'13:24.986',-0.13,0.075,11111111110101010110000
'13:24.989',-0.155,0.06,11111111110011010010000
'13:24.992',-0.165,0.085,11111111110010011110000
'13:24.994',-0.14,0.095,11111111110100100000000
'13:24.997',-0.14,0.135,11111111110100100000000
'13:25.000',-0.135,0.12,11111111110100111100000
'13:25.003',-0.145,0.12,11111111110100000110000
'13:25.006',-0.155,0.14,11111111110011010010000
'13:25.008',-0.155,0.13,11111111110011010010000
'13:25.011',-0.15,0.115,11111111110011101100000
'13:25.014',-0.13,0.085,11111111110101010110000
'13:25.017',-0.135,0.08,11111111110100111100000
'13:25.019',-0.14,0.085,11111111110100100000000
'13:25.022',-0.145,0.095,11111111110100000110000
'13:25.025',-0.145,0.13,11111111110100000110000
'13:25.028',-0.145,0.15,11111111110100000110000
'13:25.031',-0.12,0.185,11111111110110001010000
'13:25.033',-0.12,0.155,11111111110110001010000
'13:25.036',-0.13,0.115,11111111110101010110000
'13:25.039',-0.14,0.07,11111111110100100000000
'13:25.042',-0.14,0.035,11111111110100100000000
'13:25.044',-0.125,0.03,11111111110101110000000
'13:25.047',-0.115,0.055,11111111110110100100000
'13:25.050',-0.105,0.035,11111111110111011000000
'13:25.053',-0.13,0.06,11111111110101010110000
'13:25.056',-0.145,0.075,11111111110100000110000
'13:25.058',-0.15,0.1,11111111110011101100000
'13:25.061',-0.125,0.13,11111111110101110000000
'13:25.064',-0.11,0.17,11111111110110111110000
'13:25.067',-0.12,0.16,11111111110110001010000
'13:25.069',-0.13,0.145,11111111110101010110000
'13:25.072',-0.155,0.12,11111111110011010010000
'13:25.075',-0.18,0.1,11111111110001010000000
'13:25.078',-0.145,0.105,11111111110100000110000
'13:25.081',-0.135,0.095,11111111110100111100000
'13:25.083',-0.135,0.07,11111111110100111100000
'13:25.086',-0.135,0.07,11111111110100111100000
'13:25.089',-0.165,0.09,11111111110010011110000
'13:25.092',-0.17,0.1,11111111110010000100000
'13:25.094',-0.145,0.12,11111111110100000110000
'13:25.097',-0.145,0.14,11111111110100000110000
'13:25.100',-0.135,0.14,11111111110100111100000
'13:25.103',-0.16,0.125,11111111110010111000000
'13:25.106',-0.185,0.115,11111111110000110110000
'13:25.108',-0.2,0.145,11111111101111100110000
'13:25.111',-0.2,0.145,11111111101111100110000
'13:25.114',-0.2,0.13,11111111101111100110000
'13:25.117',-0.225,0.125,11111111101101100100000
'13:25.119',-0.225,0.1,11111111101101100100000
'13:25.122',-0.255,0.085,11111111101011000110000
'13:25.125',-0.285,0.085,11111111101000101000000
'13:25.128',-0.305,0.08,11111111100111000000000
'13:25.131',-0.3,0.095,11111111100111011010000
'13:25.133',-0.34,0.075,11111111100100001000000
'13:25.136',-0.36,0.055,11111111100010100000000
'13:25.139',-0.395,0.045,11111111011111101000000
'13:25.142',-0.395,0.045,11111111011111101000000
'13:25.144',-0.39,0.045,11111111100000000010000
'13:25.147',-0.385,0.05,11111111100000011100000
'13:25.150',-0.4,0.05,11111111011111001110000
'13:25.153',-0.405,0.045,11111111011110110100000
'13:25.156',-0.41,0.055,11111111011110011010000
'13:25.158',-0.425,0.095,11111111011101001010000
'13:25.161',-0.39,0.11,11111111100000000010000
'13:25.164',-0.385,0.16,11111111100000011100000
'13:25.167',-0.365,0.17,11111111100010000110000
'13:25.169',-0.385,0.145,11111111100000011100000
'13:25.172',-0.38,0.16,11111111100000110110000
'13:25.175',-0.345,0.165,11111111100011101110000
'13:25.178',-0.31,0.17,11111111100110100110000
'13:25.181',-0.29,0.16,11111111101000001110000
'13:25.183',-0.265,0.135,11111111101010010010000
'13:25.186',-0.29,0.105,11111111101000001110000
'13:25.189',-0.31,0.095,11111111100110100110000
'13:25.192',-0.32,0.095,11111111100101110010000
'13:25.194',-0.32,0.125,11111111100101110010000
'13:25.197',-0.29,0.145,11111111101000001110000
'13:25.200',-0.295,0.14,11111111100111110100000
'13:25.203',-0.31,0.15,11111111100110100110000
'13:25.206',-0.33,0.15,11111111100100111100000
'13:25.208',-0.35,0.14,11111111100011010100000
'13:25.211',-0.345,0.135,11111111100011101110000
'13:25.214',-0.335,0.115,11111111100100100010000
'13:25.217',-0.335,0.08,11111111100100100010000
'13:25.219',-0.345,0.045,11111111100011101110000
'13:25.222',-0.37,0.015,11111111100001101100000
'13:25.225',-0.36,0.015,11111111100010100000000
'13:25.228',-0.35,0.045,11111111100011010100000
'13:25.231',-0.33,0.075,11111111100100111100000
'13:25.233',-0.33,0.08,11111111100100111100000
'13:25.236',-0.33,0.065,11111111100100111100000
'13:25.239',-0.34,0.05,11111111100100001000000
'13:25.242',-0.335,0.06,11111111100100100010000
'13:25.244',-0.325,0.07,11111111100101011000000
'13:25.247',-0.31,0.095,11111111100110100110000
'13:25.250',-0.32,0.095,11111111100101110010000
'13:25.253',-0.335,0.1,11111111100100100010000
'13:25.256',-0.345,0.08,11111111100011101110000
'13:25.258',-0.36,0.07,11111111100010100000000
'13:25.261',-0.325,0.05,11111111100101011000000
'13:25.264',-0.32,0.055,11111111100101110010000
'13:25.267',-0.325,0.065,11111111100101011000000
'13:25.269',-0.34,0.07,11111111100100001000000
'13:25.272',-0.35,0.085,11111111100011010100000
'13:25.275',-0.34,0.115,11111111100100001000000
'13:25.278',-0.325,0.1,11111111100101011000000
'13:25.281',-0.32,0.12,11111111100101110010000
'13:25.283',-0.31,0.11,11111111100110100110000
'13:25.286',-0.33,0.105,11111111100100111100000
'13:25.289',-0.345,0.1,11111111100011101110000
'13:25.292',-0.34,0.07,11111111100100001000000
'13:25.294',-0.315,0.05,11111111100110001100000
'13:25.297',-0.3,0.045,11111111100111011010000
'13:25.300',-0.305,0.065,11111111100111000000000
'13:25.303',-0.315,0.06,11111111100110001100000
'13:25.306',-0.34,0.045,11111111100100001000000
'13:25.308',-0.34,0.045,11111111100100001000000
'13:25.311',-0.34,0.05,11111111100100001000000
'13:25.314',-0.33,0.055,11111111100100111100000
'13:25.317',-0.3,0.075,11111111100111011010000
'13:25.319',-0.325,0.075,11111111100101011000000
'13:25.322',-0.325,0.085,11111111100101011000000
'13:25.325',-0.335,0.095,11111111100100100010000
'13:25.328',-0.315,0.095,11111111100110001100000
'13:25.331',-0.305,0.06,11111111100111000000000
'13:25.333',-0.32,0.03,11111111100101110010000
'13:25.336',-0.33,0.015,11111111100100111100000
'13:25.339',-0.35,0.015,11111111100011010100000
'13:25.342',-0.345,0.045,11111111100011101110000
'13:25.344',-0.34,0.085,11111111100100001000000
'13:25.347',-0.325,0.115,11111111100101011000000
'13:25.350',-0.34,0.135,11111111100100001000000
'13:25.353',-0.365,0.135,11111111100010000110000
'13:25.356',-0.415,0.11,11111111011110000000000
'13:25.358',-0.45,0.08,11111111011011001000000
'13:25.361',-0.5,0.005,11111111010111000010000
'13:25.364',-0.525,-0.1,11111111010100111110000
'13:25.367',-0.575,-0.24,11111111010000111000000
'13:25.369',-0.545,-0.385,11111111010011010110000
'13:25.372',-0.48,-0.505,11111111011000101010000
'13:25.375',-0.32,-0.615,11111111100101110010000
'13:25.378',-0.09,-0.68,11111111111000101000000
'13:25.381',0.15,-0.695,00000000001100010010000
'13:25.383',0.33,-0.69,00000000011011000010000
'13:25.386',0.43,-0.655,00000000100011001110000
'13:25.389',0.415,-0.565,00000000100001111110000
'13:25.392',0.275,-0.44,00000000010110100000000
'13:25.394',0,-0.325,00000000000000000000000
'13:25.397',-0.28,-0.17,11111111101001000010000
'13:25.400',-0.47,-0.035,11111111011001011110000
'13:25.403',-0.505,0.11,11111111010110101000000
'13:25.406',-0.45,0.21,11111111011011001000000
'13:25.408',-0.32,0.25,11111111100101110010000
'13:25.411',-0.205,0.245,11111111101111001100000
'13:25.414',-0.145,0.225,11111111110100000110000
'13:25.417',-0.11,0.19,11111111110110111110000
'13:25.419',-0.12,0.185,11111111110110001010000
'13:25.422',-0.17,0.18,11111111110010000100000
'13:25.425',-0.185,0.18,11111111110000110110000
'13:25.428',-0.175,0.165,11111111110001101010000
'13:25.431',-0.17,0.155,11111111110010000100000
'13:25.433',-0.17,0.15,11111111110010000100000
'13:25.436',-0.185,0.13,11111111110000110110000
'13:25.439',-0.21,0.135,11111111101110110010000
'13:25.442',-0.21,0.145,11111111101110110010000
'13:25.444',-0.2,0.135,11111111101111100110000
'13:25.447',-0.19,0.125,11111111110000011010000
'13:25.450',-0.195,0.095,11111111110000000000000
'13:25.453',-0.2,0.1,11111111101111100110000
'13:25.456',-0.21,0.09,11111111101110110010000
'13:25.458',-0.235,0.135,11111111101100101110000
'13:25.461',-0.215,0.16,11111111101110011000000
'13:25.464',-0.205,0.175,11111111101111001100000
'13:25.467',-0.2,0.18,11111111101111100110000
'13:25.469',-0.2,0.16,11111111101111100110000
'13:25.472',-0.205,0.145,11111111101111001100000
'13:25.475',-0.2,0.12,11111111101111100110000
'13:25.478',-0.195,0.08,11111111110000000000000
'13:25.481',-0.2,0.08,11111111101111100110000
'13:25.483',-0.205,0.075,11111111101111001100000
'13:25.486',-0.215,0.095,11111111101110011000000
'13:25.489',-0.22,0.125,11111111101101111110000
'13:25.492',-0.21,0.185,11111111101110110010000
'13:25.494',-0.205,0.225,11111111101111001100000
'13:25.497',-0.175,0.21,11111111110001101010000
'13:25.500',-0.195,0.15,11111111110000000000000
'13:25.503',-0.21,0.09,11111111101110110010000
'13:25.506',-0.225,0.055,11111111101101100100000
'13:25.508',-0.235,0.06,11111111101100101110000
'13:25.511',-0.225,0.095,11111111101101100100000
'13:25.514',-0.215,0.13,11111111101110011000000
'13:25.517',-0.215,0.135,11111111101110011000000
'13:25.519',-0.215,0.135,11111111101110011000000
'13:25.522',-0.22,0.12,11111111101101111110000
'13:25.525',-0.215,0.12,11111111101110011000000
'13:25.528',-0.2,0.125,11111111101111100110000
'13:25.531',-0.19,0.11,11111111110000011010000
'13:25.533',-0.195,0.115,11111111110000000000000
'13:25.536',-0.2,0.095,11111111101111100110000
'13:25.539',-0.21,0.105,11111111101110110010000
'13:25.542',-0.205,0.14,11111111101111001100000
'13:25.544',-0.195,0.185,11111111110000000000000
'13:25.547',-0.185,0.19,11111111110000110110000
'13:25.550',-0.19,0.145,11111111110000011010000
'13:25.553',-0.185,0.11,11111111110000110110000
'13:25.556',-0.205,0.095,11111111101111001100000
'13:25.558',-0.205,0.105,11111111101111001100000
'13:25.561',-0.2,0.1,11111111101111100110000
'13:25.564',-0.18,0.115,11111111110001010000000
'13:25.567',-0.175,0.125,11111111110001101010000
'13:25.569',-0.195,0.1,11111111110000000000000
'13:25.572',-0.23,0.1,11111111101101001010000
'13:25.575',-0.24,0.11,11111111101100010100000
'13:25.578',-0.255,0.13,11111111101011000110000
'13:25.581',-0.24,0.13,11111111101100010100000
'13:25.583',-0.255,0.095,11111111101011000110000
'13:25.586',-0.275,0.05,11111111101001011110000
'13:25.589',-0.31,0.035,11111111100110100110000
'13:25.592',-0.345,0.055,11111111100011101110000
'13:25.594',-0.36,0.12,11111111100010100000000
'13:25.597',-0.38,0.135,11111111100000110110000
'13:25.600',-0.38,0.13,11111111100000110110000
'13:25.603',-0.39,0.1,11111111100000000010000
'13:25.606',-0.41,0.06,11111111011110011010000
'13:25.608',-0.455,0.055,11111111011010101110000
'13:25.611',-0.455,0.065,11111111011010101110000
'13:25.614',-0.46,0.085,11111111011010010100000
'13:25.617',-0.485,0.085,11111111011000010000000
'13:25.619',-0.495,0.085,11111111010111011100000
'13:25.622',-0.51,0.08,11111111010110001110000
'13:25.625',-0.52,0.11,11111111010101011000000
'13:25.628',-0.5,0.145,11111111010111000010000
'13:25.631',-0.485,0.155,11111111011000010000000
'13:25.633',-0.45,0.18,11111111011011001000000
'13:25.636',-0.445,0.2,11111111011011100010000
'13:25.639',-0.415,0.215,11111111011110000000000
'13:25.642',-0.39,0.23,11111111100000000010000
'13:25.644',-0.37,0.245,11111111100001101100000
'13:25.647',-0.335,0.235,11111111100100100010000
'13:25.650',-0.32,0.195,11111111100101110010000
'13:25.653',-0.325,0.16,11111111100101011000000
'13:25.656',-0.33,0.13,11111111100100111100000
'13:25.658',-0.325,0.115,11111111100101011000000
'13:25.661',-0.315,0.1,11111111100110001100000
'13:25.664',-0.325,0.095,11111111100101011000000
'13:25.667',-0.325,0.12,11111111100101011000000
'13:25.669',-0.34,0.155,11111111100100001000000
'13:25.672',-0.345,0.17,11111111100011101110000
'13:25.675',-0.345,0.165,11111111100011101110000
'13:25.678',-0.35,0.145,11111111100011010100000
'13:25.681',-0.325,0.125,11111111100101011000000
'13:25.683',-0.345,0.1,11111111100011101110000
'13:25.686',-0.365,0.095,11111111100010000110000
'13:25.689',-0.375,0.11,11111111100001010000000
'13:25.692',-0.365,0.11,11111111100010000110000
'13:25.694',-0.35,0.14,11111111100011010100000
'13:25.697',-0.345,0.145,11111111100011101110000
'13:25.700',-0.37,0.115,11111111100001101100000
'13:25.703',-0.365,0.09,11111111100010000110000
'13:25.706',-0.37,0.07,11111111100001101100000
'13:25.708',-0.365,0.075,11111111100010000110000
'13:25.711',-0.36,0.09,11111111100010100000000
'13:25.714',-0.345,0.12,11111111100011101110000
'13:25.717',-0.33,0.12,11111111100100111100000
'13:25.719',-0.325,0.12,11111111100101011000000
'13:25.722',-0.33,0.125,11111111100100111100000
'13:25.725',-0.33,0.135,11111111100100111100000
'13:25.728',-0.325,0.13,11111111100101011000000
'13:25.731',-0.32,0.125,11111111100101110010000
'13:25.733',-0.33,0.11,11111111100100111100000
'13:25.736',-0.325,0.095,11111111100101011000000
'13:25.739',-0.325,0.09,11111111100101011000000
'13:25.742',-0.32,0.105,11111111100101110010000
'13:25.744',-0.32,0.11,11111111100101110010000
'13:25.747',-0.33,0.105,11111111100100111100000
'13:25.750',-0.31,0.095,11111111100110100110000
'13:25.753',-0.31,0.075,11111111100110100110000
'13:25.756',-0.325,0.085,11111111100101011000000
'13:25.758',-0.33,0.095,11111111100100111100000
'13:25.761',-0.315,0.12,11111111100110001100000
'13:25.764',-0.305,0.13,11111111100111000000000
'13:25.767',-0.31,0.115,11111111100110100110000
'13:25.769',-0.315,0.1,11111111100110001100000
'13:25.772',-0.325,0.1,11111111100101011000000
'13:25.775',-0.315,0.11,11111111100110001100000
'13:25.778',-0.315,0.1,11111111100110001100000
'13:25.781',-0.3,0.065,11111111100111011010000
'13:25.783',-0.3,0.025,11111111100111011010000
'13:25.786',-0.315,0.005,11111111100110001100000
'13:25.789',-0.33,0.01,11111111100100111100000
'13:25.792',-0.33,0.055,11111111100100111100000
'13:25.794',-0.305,0.075,11111111100111000000000
'13:25.797',-0.295,0.095,11111111100111110100000
'13:25.800',-0.31,0.08,11111111100110100110000
'13:25.803',-0.355,0.06,11111111100010111010000
'13:25.806',-0.38,0.065,11111111100000110110000
'13:25.808',-0.39,0.08,11111111100000000010000
'13:25.811',-0.395,0.085,11111111011111101000000
'13:25.814',-0.39,0.075,11111111100000000010000
'13:25.817',-0.4,0.065,11111111011111001110000
'13:25.819',-0.43,0.03,11111111011100110000000
'13:25.822',-0.46,0.01,11111111011010010100000
'13:25.825',-0.455,0.015,11111111011010101110000
'13:25.828',-0.45,0.025,11111111011011001000000
'13:25.831',-0.45,0.055,11111111011011001000000
'13:25.833',-0.46,0.095,11111111011010010100000
'13:25.836',-0.495,0.125,11111111010111011100000
'13:25.839',-0.515,0.125,11111111010101110010000
'13:25.842',-0.56,0.105,11111111010010000110000
'13:25.844',-0.58,0.03,11111111010000011110000
'13:25.847',-0.615,-0.09,11111111001101100110000
'13:25.850',-0.625,-0.285,11111111001100110010000
'13:25.853',-0.565,-0.46,11111111010001101100000
'13:25.856',-0.4,-0.565,11111111011111001110000
'13:25.858',-0.16,-0.59,11111111110010111000000
'13:25.861',0.14,-0.575,00000000001011011110000
'13:25.864',0.375,-0.475,00000000011110101110000
'13:25.867',0.455,-0.35,00000000100101010000000
'13:25.869',0.37,-0.245,00000000011110010010000
'13:25.872',0.08,-0.165,00000000000110100010000
'13:25.875',-0.245,-0.07,11111111101011111010000
'13:25.878',-0.44,-0.015,11111111011011111100000
'13:25.881',-0.46,0.055,11111111011010010100000
'13:25.883',-0.37,0.115,11111111100001101100000
'13:25.886',-0.27,0.155,11111111101001111000000
'13:25.889',-0.19,0.165,11111111110000011010000
'13:25.892',-0.145,0.19,11111111110100000110000
'13:25.894',-0.15,0.18,11111111110011101100000
'13:25.897',-0.155,0.15,11111111110011010010000
'13:25.900',-0.19,0.11,11111111110000011010000
'13:25.903',-0.225,0.11,11111111101101100100000
'13:25.906',-0.24,0.145,11111111101100010100000
'13:25.908',-0.245,0.17,11111111101011111010000
'13:25.911',-0.235,0.185,11111111101100101110000
'13:25.914',-0.24,0.145,11111111101100010100000
'13:25.917',-0.24,0.07,11111111101100010100000
'13:25.919',-0.235,0.045,11111111101100101110000
'13:25.922',-0.24,0.04,11111111101100010100000
'13:25.925',-0.23,0.06,11111111101101001010000
'13:25.928',-0.22,0.075,11111111101101111110000
'13:25.931',-0.215,0.08,11111111101110011000000
'13:25.933',-0.24,0.085,11111111101100010100000
'13:25.936',-0.25,0.06,11111111101011100000000
'13:25.939',-0.25,0.07,11111111101011100000000
'13:25.942',-0.26,0.1,11111111101010101100000
'13:25.944',-0.25,0.13,11111111101011100000000
'13:25.947',-0.225,0.15,11111111101101100100000
'13:25.950',-0.225,0.16,11111111101101100100000
'13:25.953',-0.235,0.13,11111111101100101110000
'13:25.956',-0.255,0.1,11111111101011000110000
'13:25.958',-0.255,0.085,11111111101011000110000
'13:25.961',-0.235,0.075,11111111101100101110000
'13:25.964',-0.21,0.08,11111111101110110010000
'13:25.967',-0.23,0.09,11111111101101001010000
'13:25.969',-0.25,0.11,11111111101011100000000
'13:25.972',-0.265,0.115,11111111101010010010000
'13:25.975',-0.27,0.14,11111111101001111000000
'13:25.978',-0.26,0.175,11111111101010101100000
'13:25.981',-0.26,0.17,11111111101010101100000
'13:25.983',-0.245,0.14,11111111101011111010000
'13:25.986',-0.25,0.09,11111111101011100000000
'13:25.989',-0.25,0.07,11111111101011100000000
'13:25.992',-0.27,0.06,11111111101001111000000
'13:25.994',-0.26,0.07,11111111101010101100000
'13:25.997',-0.26,0.075,11111111101010101100000
'13:26.000',-0.26,0.075,11111111101010101100000
'13:26.003',-0.26,0.085,11111111101010101100000
'13:26.006',-0.28,0.06,11111111101001000010000
'13:26.008',-0.295,0.075,11111111100111110100000
'13:26.011',-0.285,0.09,11111111101000101000000
'13:26.014',-0.295,0.11,11111111100111110100000
'13:26.017',-0.305,0.11,11111111100111000000000
'13:26.019',-0.345,0.08,11111111100011101110000
'13:26.022',-0.37,0.04,11111111100001101100000
'13:26.025',-0.41,0.025,11111111011110011010000
'13:26.028',-0.425,0.055,11111111011101001010000
'13:26.031',-0.42,0.07,11111111011101100100000
'13:26.033',-0.425,0.075,11111111011101001010000
'13:26.036',-0.445,0.075,11111111011011100010000
'13:26.039',-0.475,0.09,11111111011001000100000
'13:26.042',-0.505,0.13,11111111010110101000000
'13:26.044',-0.495,0.15,11111111010111011100000
'13:26.047',-0.51,0.16,11111111010110001110000
'13:26.050',-0.515,0.15,11111111010101110010000
'13:26.053',-0.515,0.125,11111111010101110010000
'13:26.056',-0.495,0.115,11111111010111011100000
'13:26.058',-0.485,0.105,11111111011000010000000
'13:26.061',-0.445,0.12,11111111011011100010000
'13:26.064',-0.41,0.135,11111111011110011010000
'13:26.067',-0.39,0.15,11111111100000000010000
'13:26.069',-0.37,0.165,11111111100001101100000
'13:26.072',-0.36,0.175,11111111100010100000000
'13:26.075',-0.36,0.175,11111111100010100000000
'13:26.078',-0.35,0.17,11111111100011010100000
'13:26.081',-0.35,0.18,11111111100011010100000
'13:26.083',-0.34,0.18,11111111100100001000000
'13:26.086',-0.35,0.185,11111111100011010100000
'13:26.089',-0.34,0.17,11111111100100001000000
'13:26.092',-0.34,0.17,11111111100100001000000
'13:26.094',-0.35,0.155,11111111100011010100000
'13:26.097',-0.35,0.17,11111111100011010100000
'13:26.100',-0.365,0.17,11111111100010000110000
'13:26.103',-0.38,0.165,11111111100000110110000
'13:26.106',-0.38,0.14,11111111100000110110000
'13:26.108',-0.375,0.12,11111111100001010000000
'13:26.111',-0.38,0.13,11111111100000110110000
'13:26.114',-0.36,0.125,11111111100010100000000
'13:26.117',-0.385,0.135,11111111100000011100000
'13:26.119',-0.39,0.1,11111111100000000010000
'13:26.122',-0.415,0.105,11111111011110000000000
'13:26.125',-0.4,0.12,11111111011111001110000
'13:26.128',-0.39,0.125,11111111100000000010000
'13:26.131',-0.37,0.145,11111111100001101100000
'13:26.133',-0.38,0.11,11111111100000110110000
'13:26.136',-0.41,0.06,11111111011110011010000
'13:26.139',-0.395,0.04,11111111011111101000000
'13:26.142',-0.415,0.035,11111111011110000000000
'13:26.144',-0.4,0.05,11111111011111001110000
'13:26.147',-0.385,0.105,11111111100000011100000
'13:26.150',-0.385,0.12,11111111100000011100000
'13:26.153',-0.39,0.11,11111111100000000010000
'13:26.156',-0.395,0.115,11111111011111101000000
'13:26.158',-0.395,0.095,11111111011111101000000
'13:26.161',-0.39,0.08,11111111100000000010000
'13:26.164',-0.37,0.06,11111111100001101100000
'13:26.167',-0.37,0.035,11111111100001101100000
'13:26.169',-0.375,0.005,11111111100001010000000
'13:26.172',-0.39,-0.005,11111111100000000010000
'13:26.175',-0.41,0.03,11111111011110011010000
'13:26.178',-0.39,0.075,11111111100000000010000
'13:26.181',-0.375,0.115,11111111100001010000000
'13:26.183',-0.355,0.095,11111111100010111010000
'13:26.186',-0.36,0.045,11111111100010100000000
'13:26.189',-0.385,0.025,11111111100000011100000
'13:26.192',-0.39,0.035,11111111100000000010000
'13:26.194',-0.375,0.05,11111111100001010000000
'13:26.197',-0.37,0.065,11111111100001101100000
'13:26.200',-0.365,0.03,11111111100010000110000
'13:26.203',-0.375,0.025,11111111100001010000000
'13:26.206',-0.38,0.045,11111111100000110110000
'13:26.208',-0.405,0.055,11111111011110110100000
'13:26.211',-0.405,0.11,11111111011110110100000
'13:26.214',-0.385,0.145,11111111100000011100000
'13:26.217',-0.385,0.12,11111111100000011100000
'13:26.219',-0.39,0.09,11111111100000000010000
'13:26.222',-0.405,0.07,11111111011110110100000
'13:26.225',-0.405,0.045,11111111011110110100000
'13:26.228',-0.43,0.035,11111111011100110000000
'13:26.231',-0.41,0.045,11111111011110011010000
'13:26.233',-0.425,0.03,11111111011101001010000
'13:26.236',-0.455,0.015,11111111011010101110000
'13:26.239',-0.475,0.01,11111111011001000100000
'13:26.242',-0.5,0.055,11111111010111000010000
'13:26.244',-0.515,0.095,11111111010101110010000
'13:26.247',-0.495,0.13,11111111010111011100000
'13:26.250',-0.515,0.12,11111111010101110010000
'13:26.253',-0.53,0.045,11111111010100100100000
'13:26.256',-0.55,0,11111111010010111100000
'13:26.258',-0.55,0.03,11111111010010111100000
'13:26.261',-0.535,0.085,11111111010100001010000
'13:26.264',-0.54,0.12,11111111010011110000000
'13:26.267',-0.55,0.09,11111111010010111100000
'13:26.269',-0.53,0.03,11111111010100100100000
'13:26.272',-0.52,-0.015,11111111010101011000000
'13:26.275',-0.475,0.01,11111111011001000100000
'13:26.278',-0.425,0.085,11111111011101001010000
'13:26.281',-0.395,0.145,11111111011111101000000
'13:26.283',-0.375,0.18,11111111100001010000000
'13:26.286',-0.375,0.185,11111111100001010000000
'13:26.289',-0.375,0.18,11111111100001010000000
'13:26.292',-0.335,0.175,11111111100100100010000
'13:26.294',-0.28,0.155,11111111101001000010000
'13:26.297',-0.265,0.14,11111111101010010010000
'13:26.300',-0.255,0.135,11111111101011000110000
'13:26.303',-0.24,0.14,11111111101100010100000
'13:26.306',-0.26,0.15,11111111101010101100000
'13:26.308',-0.235,0.155,11111111101100101110000
'13:26.311',-0.235,0.15,11111111101100101110000
'13:26.314',-0.23,0.175,11111111101101001010000
'13:26.317',-0.245,0.145,11111111101011111010000
'13:26.319',-0.265,0.1,11111111101010010010000
'13:26.322',-0.255,0.02,11111111101011000110000
'13:26.325',-0.26,-0.005,11111111101010101100000
'13:26.328',-0.235,0.035,11111111101100101110000
'13:26.331',-0.225,0.08,11111111101101100100000
'13:26.333',-0.235,0.115,11111111101100101110000
'13:26.336',-0.25,0.11,11111111101011100000000
'13:26.339',-0.26,0.095,11111111101010101100000
'13:26.342',-0.275,0.075,11111111101001011110000
'13:26.344',-0.255,0.075,11111111101011000110000
'13:26.347',-0.24,0.085,11111111101100010100000
'13:26.350',-0.235,0.095,11111111101100101110000
'13:26.353',-0.255,0.095,11111111101011000110000
'13:26.356',-0.24,0.09,11111111101100010100000
'13:26.358',-0.26,0.085,11111111101010101100000
'13:26.361',-0.24,0.1,11111111101100010100000
'13:26.364',-0.225,0.1,11111111101101100100000
'13:26.367',-0.235,0.1,11111111101100101110000
'13:26.369',-0.23,0.08,11111111101101001010000
'13:26.372',-0.245,0.085,11111111101011111010000
'13:26.375',-0.255,0.12,11111111101011000110000
'13:26.378',-0.24,0.165,11111111101100010100000
'13:26.381',-0.235,0.195,11111111101100101110000
'13:26.383',-0.245,0.21,11111111101011111010000
'13:26.386',-0.245,0.175,11111111101011111010000
'13:26.389',-0.27,0.14,11111111101001111000000
'13:26.392',-0.265,0.105,11111111101010010010000
'13:26.394',-0.265,0.085,11111111101010010010000
'13:26.397',-0.26,0.065,11111111101010101100000
'13:26.400',-0.255,0.045,11111111101011000110000
'13:26.403',-0.25,0.005,11111111101011100000000
'13:26.406',-0.26,0,11111111101010101100000
'13:26.408',-0.265,0.02,11111111101010010010000
'13:26.411',-0.26,0.04,11111111101010101100000
'13:26.414',-0.24,0.065,11111111101100010100000
'13:26.417',-0.24,0.09,11111111101100010100000
'13:26.419',-0.25,0.135,11111111101011100000000
'13:26.422',-0.255,0.175,11111111101011000110000
'13:26.425',-0.26,0.17,11111111101010101100000
'13:26.428',-0.265,0.15,11111111101010010010000
'13:26.431',-0.285,0.105,11111111101000101000000
'13:26.433',-0.32,0.015,11111111100101110010000
'13:26.436',-0.34,-0.08,11111111100100001000000
'13:26.439',-0.35,-0.22,11111111100011010100000
'13:26.442',-0.305,-0.375,11111111100111000000000
'13:26.444',-0.18,-0.535,11111111110001010000000
'13:26.447',-0.01,-0.665,11111111111111001010000
'13:26.450',0.165,-0.75,00000000001101100000000
'13:26.453',0.35,-0.74,00000000011100101010000
'13:26.456',0.495,-0.65,00000000101000100010000
'13:26.458',0.51,-0.515,00000000101001110000000
'13:26.461',0.39,-0.38,00000000011111111100000
'13:26.464',0.08,-0.255,00000000000110100010000
'13:26.467',-0.29,-0.16,11111111101000001110000
'13:26.469',-0.535,-0.105,11111111010100001010000
'13:26.472',-0.645,-0.03,11111111001011001010000
'13:26.475',-0.6,0.035,11111111001110110110000
'13:26.478',-0.51,0.055,11111111010110001110000
'13:26.481',-0.435,0.065,11111111011100010110000
'13:26.483',-0.42,0.03,11111111011101100100000
'13:26.486',-0.455,0.02,11111111011010101110000
'13:26.489',-0.46,0.01,11111111011010010100000
'13:26.492',-0.48,0.025,11111111011000101010000
'13:26.494',-0.47,0.055,11111111011001011110000
'13:26.497',-0.45,0.065,11111111011011001000000
'13:26.500',-0.44,0.055,11111111011011111100000
'13:26.503',-0.445,0.075,11111111011011100010000
'13:26.506',-0.445,0.095,11111111011011100010000
'13:26.508',-0.41,0.165,11111111011110011010000
'13:26.511',-0.38,0.23,11111111100000110110000
'13:26.514',-0.345,0.28,11111111100011101110000
'13:26.517',-0.34,0.265,11111111100100001000000
'13:26.519',-0.315,0.235,11111111100110001100000
'13:26.522',-0.28,0.215,11111111101001000010000
'13:26.525',-0.245,0.215,11111111101011111010000
'13:26.528',-0.22,0.22,11111111101101111110000
'13:26.531',-0.195,0.195,11111111110000000000000
'13:26.533',-0.185,0.165,11111111110000110110000
'13:26.536',-0.185,0.14,11111111110000110110000
'13:26.539',-0.175,0.15,11111111110001101010000
'13:26.542',-0.17,0.16,11111111110010000100000
'13:26.544',-0.155,0.185,11111111110011010010000
'13:26.547',-0.135,0.245,11111111110100111100000
'13:26.550',-0.135,0.26,11111111110100111100000
'13:26.553',-0.155,0.235,11111111110011010010000
'13:26.556',-0.16,0.205,11111111110010111000000
'13:26.558',-0.17,0.18,11111111110010000100000
'13:26.561',-0.17,0.19,11111111110010000100000
'13:26.564',-0.15,0.225,11111111110011101100000
'13:26.567',-0.135,0.255,11111111110100111100000
'13:26.569',-0.15,0.28,11111111110011101100000
'13:26.572',-0.155,0.22,11111111110011010010000
'13:26.575',-0.16,0.155,11111111110010111000000
'13:26.578',-0.15,0.1,11111111110011101100000
'13:26.581',-0.155,0.065,11111111110011010010000
'13:26.583',-0.14,0.075,11111111110100100000000
'13:26.586',-0.14,0.11,11111111110100100000000
'13:26.589',-0.14,0.13,11111111110100100000000
'13:26.592',-0.14,0.14,11111111110100100000000
'13:26.594',-0.14,0.15,11111111110100100000000
'13:26.597',-0.145,0.16,11111111110100000110000
'13:26.600',-0.135,0.15,11111111110100111100000
'13:26.603',-0.14,0.13,11111111110100100000000
'13:26.606',-0.15,0.11,11111111110011101100000
'13:26.608',-0.145,0.1,11111111110100000110000
'13:26.611',-0.135,0.11,11111111110100111100000
'13:26.614',-0.13,0.12,11111111110101010110000
'13:26.617',-0.135,0.125,11111111110100111100000
'13:26.619',-0.145,0.125,11111111110100000110000
'13:26.622',-0.155,0.13,11111111110011010010000
'13:26.625',-0.16,0.145,11111111110010111000000
'13:26.628',-0.155,0.14,11111111110011010010000
'13:26.631',-0.145,0.14,11111111110100000110000
'13:26.633',-0.145,0.125,11111111110100000110000
'13:26.636',-0.155,0.105,11111111110011010010000
'13:26.639',-0.175,0.105,11111111110001101010000
'13:26.642',-0.17,0.115,11111111110010000100000
'13:26.644',-0.16,0.135,11111111110010111000000
'13:26.647',-0.155,0.145,11111111110011010010000
'13:26.650',-0.14,0.12,11111111110100100000000
'13:26.653',-0.145,0.12,11111111110100000110000
'13:26.656',-0.17,0.11,11111111110010000100000
'13:26.658',-0.17,0.115,11111111110010000100000
'13:26.661',-0.17,0.14,11111111110010000100000
'13:26.664',-0.16,0.14,11111111110010111000000
'13:26.667',-0.175,0.13,11111111110001101010000
'13:26.669',-0.175,0.12,11111111110001101010000
'13:26.672',-0.2,0.1,11111111101111100110000
'13:26.675',-0.195,0.135,11111111110000000000000
'13:26.678',-0.21,0.15,11111111101110110010000
'13:26.681',-0.215,0.15,11111111101110011000000
'13:26.683',-0.215,0.15,11111111101110011000000
'13:26.686',-0.23,0.13,11111111101101001010000
'13:26.689',-0.25,0.14,11111111101011100000000
'13:26.692',-0.265,0.145,11111111101010010010000
'13:26.694',-0.28,0.175,11111111101001000010000
'13:26.697',-0.275,0.2,11111111101001011110000
'13:26.700',-0.285,0.225,11111111101000101000000
'13:26.703',-0.305,0.215,11111111100111000000000
'13:26.706',-0.34,0.215,11111111100100001000000
'13:26.708',-0.345,0.175,11111111100011101110000
'13:26.711',-0.36,0.115,11111111100010100000000
'13:26.714',-0.365,0.035,11111111100010000110000
'13:26.717',-0.4,-0.005,11111111011111001110000
'13:26.719',-0.41,-0.015,11111111011110011010000
'13:26.722',-0.44,0.02,11111111011011111100000
'13:26.725',-0.45,0.07,11111111011011001000000
'13:26.728',-0.475,0.1,11111111011001000100000
'13:26.731',-0.485,0.075,11111111011000010000000
'13:26.733',-0.495,0.05,11111111010111011100000
'13:26.736',-0.525,0.025,11111111010100111110000
'13:26.739',-0.555,0.035,11111111010010100010000
'13:26.742',-0.56,0.08,11111111010010000110000
'13:26.744',-0.56,0.1,11111111010010000110000
'13:26.747',-0.555,0.095,11111111010010100010000
'13:26.750',-0.56,0.055,11111111010010000110000
'13:26.753',-0.59,0.025,11111111001111101010000
'13:26.756',-0.585,0.035,11111111010000000100000
'13:26.758',-0.59,0.075,11111111001111101010000
'13:26.761',-0.575,0.14,11111111010000111000000
'13:26.764',-0.535,0.18,11111111010100001010000
'13:26.767',-0.52,0.195,11111111010101011000000
'13:26.769',-0.5,0.215,11111111010111000010000
'13:26.772',-0.475,0.23,11111111011001000100000
'13:26.775',-0.44,0.25,11111111011011111100000
'13:26.778',-0.395,0.235,11111111011111101000000
'13:26.781',-0.355,0.22,11111111100010111010000
'13:26.783',-0.345,0.19,11111111100011101110000
'13:26.786',-0.34,0.185,11111111100100001000000
'13:26.789',-0.32,0.19,11111111100101110010000
'13:26.792',-0.31,0.185,11111111100110100110000
'13:26.794',-0.265,0.195,11111111101010010010000
'13:26.797',-0.25,0.2,11111111101011100000000
'13:26.800',-0.25,0.16,11111111101011100000000
'13:26.803',-0.275,0.125,11111111101001011110000
'13:26.806',-0.295,0.095,11111111100111110100000
'13:26.808',-0.315,0.11,11111111100110001100000
'13:26.811',-0.275,0.135,11111111101001011110000
'13:26.814',-0.26,0.15,11111111101010101100000
'13:26.817',-0.27,0.15,11111111101001111000000
'13:26.819',-0.275,0.135,11111111101001011110000
'13:26.822',-0.31,0.13,11111111100110100110000
'13:26.825',-0.3,0.16,11111111100111011010000
'13:26.828',-0.27,0.185,11111111101001111000000
'13:26.831',-0.26,0.17,11111111101010101100000
'13:26.833',-0.265,0.115,11111111101010010010000
'13:26.836',-0.295,0.075,11111111100111110100000
'13:26.839',-0.295,0.08,11111111100111110100000
'13:26.842',-0.29,0.11,11111111101000001110000
'13:26.844',-0.28,0.12,11111111101001000010000
'13:26.847',-0.26,0.095,11111111101010101100000
'13:26.850',-0.275,0.065,11111111101001011110000
'13:26.853',-0.285,0.05,11111111101000101000000
'13:26.856',-0.28,0.075,11111111101001000010000
'13:26.858',-0.27,0.11,11111111101001111000000
'13:26.861',-0.28,0.14,11111111101001000010000
'13:26.864',-0.265,0.14,11111111101010010010000
'13:26.867',-0.27,0.125,11111111101001111000000
'13:26.869',-0.265,0.12,11111111101010010010000
'13:26.872',-0.28,0.11,11111111101001000010000
'13:26.875',-0.29,0.11,11111111101000001110000
'13:26.878',-0.265,0.095,11111111101010010010000
'13:26.881',-0.25,0.1,11111111101011100000000
'13:26.883',-0.26,0.1,11111111101010101100000
'13:26.886',-0.29,0.11,11111111101000001110000
'13:26.889',-0.28,0.13,11111111101001000010000
'13:26.892',-0.28,0.14,11111111101001000010000
'13:26.894',-0.265,0.165,11111111101010010010000
'13:26.897',-0.25,0.16,11111111101011100000000
'13:26.900',-0.255,0.1,11111111101011000110000
'13:26.903',-0.27,0.045,11111111101001111000000
'13:26.906',-0.285,0.035,11111111101000101000000
'13:26.908',-0.265,0.06,11111111101010010010000
'13:26.911',-0.255,0.095,11111111101011000110000
'13:26.914',-0.235,0.135,11111111101100101110000
'13:26.917',-0.24,0.135,11111111101100010100000
'13:26.919',-0.245,0.12,11111111101011111010000
'13:26.922',-0.26,0.085,11111111101010101100000
'13:26.925',-0.27,0.095,11111111101001111000000
'13:26.928',-0.255,0.115,11111111101011000110000
'13:26.931',-0.24,0.15,11111111101100010100000
'13:26.933',-0.245,0.155,11111111101011111010000
'13:26.936',-0.265,0.155,11111111101010010010000
