11111111110010011110000
11111111110000011010000
11111111110001010000000
11111111110001010000000
11111111110010111000000
11111111110011010010000
11111111110011010010000
11111111110010000100000
11111111110010000100000
11111111110011101100000
11111111110011101100000
11111111110011101100000
11111111110100000110000
11111111110010011110000
11111111110010111000000
11111111110100000110000
11111111110100111100000
11111111110100111100000
11111111110100111100000
11111111110100100000000
11111111110011101100000
11111111110100100000000
11111111110100100000000
11111111110101110000000
11111111110100100000000
11111111110010111000000
11111111110011101100000
11111111110100000110000
11111111110101010110000
11111111110101010110000
11111111110100111100000
11111111110010111000000
11111111110100100000000
11111111110101010110000
11111111110110001010000
11111111110101010110000
11111111110100000110000
11111111110010111000000
11111111110010011110000
11111111110011101100000
11111111110011101100000
11111111110100000110000
11111111110011010010000
11111111110010111000000
11111111110010000100000
11111111110010111000000
11111111110100100000000
11111111110100000110000
11111111110011101100000
11111111110010111000000
11111111110001010000000
11111111110010011110000
11111111110011010010000
11111111110100000110000
11111111110011101100000
11111111110011010010000
11111111110011101100000
11111111110100111100000
11111111110101110000000
11111111110110111110000
11111111110110001010000
11111111110101010110000
11111111110100000110000
11111111110100111100000
11111111110101110000000
11111111110110001010000
11111111110011101100000
11111111110010111000000
11111111110011010010000
11111111110100000110000
11111111110100111100000
11111111110011101100000
11111111110011010010000
11111111110001010000000
11111111110000110110000
11111111110001010000000
11111111110010111000000
11111111110010000100000
11111111110010011110000
11111111110001010000000
11111111110000110110000
11111111110001101010000
11111111110011010010000
11111111110011010010000
11111111110001010000000
11111111110010000100000
11111111110010000100000
11111111110010111000000
11111111110011101100000
11111111110100111100000
11111111110100000110000
11111111110010011110000
11111111110000110110000
11111111110010111000000
11111111110100000110000
11111111110100000110000
11111111110100100000000
11111111110010011110000
11111111110010111000000
11111111110010000100000
11111111110100100000000
11111111110100100000000
11111111110011101100000
11111111110010011110000
11111111110011010010000
11111111110100000110000
11111111110101010110000
11111111110100111100000
11111111110011010010000
11111111110010000100000
11111111110001010000000
11111111110010111000000
11111111110100100000000
11111111110011010010000
11111111110010011110000
11111111110000110110000
11111111101111100110000
11111111110000110110000
11111111110010000100000
11111111110010111000000
11111111110000011010000
11111111101111100110000
11111111110000000000000
11111111110000110110000
11111111110010011110000
11111111110001101010000
11111111110010011110000
11111111110001101010000
11111111110010000100000
11111111110010011110000
11111111110011101100000
11111111110100000110000
11111111110011101100000
11111111110010000100000
11111111110100000110000
11111111110111110010000
11111111111011111000000
11111111111101100010000
11111111111111100100000
00000000000011010000000
00000000001011011110000
00000000010111010110000
00000000100100000010000
00000000101111100000000
00000000111010111110000
00000001000111010000000
00000001010011001000000
00000001011111110110000
00000001101101010110000
00000001110110110010000
00000001111100100000000
00000001111011101100000
00000001110100010100000
00000001101001010000000
00000001011001010010000
00000001000011111110000
00000000110000010100000
00000000011101000100000
00000000001101000110000
00000000000011101010000
11111111111011111000000
11111111111000001100000
11111111110111011000000
11111111110110100100000
11111111110111110010000
11111111110111110010000
11111111110110111110000
11111111110110001010000
11111111110100000110000
11111111110010011110000
11111111110001010000000
11111111110000000000000
11111111110000011010000
11111111101111001100000
11111111101110011000000
11111111101100010100000
11111111101011100000000
11111111101011000110000
11111111101101001010000
11111111101101001010000
11111111101101001010000
11111111101010101100000
11111111101011000110000
11111111101011100000000
11111111101011100000000
11111111101011000110000
11111111101001111000000
11111111101000101000000
11111111101000101000000
11111111101001111000000
11111111101001111000000
11111111101001000010000
11111111101001011110000
11111111101001011110000
11111111101010101100000
11111111101011111010000
11111111101101111110000
11111111101110110010000
11111111101111001100000
11111111101111100110000
11111111101111100110000
11111111110000011010000
11111111110001101010000
11111111110010000100000
11111111110010111000000
11111111110010000100000
11111111110010111000000
11111111110011101100000
11111111110101010110000
11111111110100111100000
11111111110100111100000
11111111110100000110000
11111111110100000110000
11111111110101010110000
11111111110110100100000
11111111110111011000000
11111111110110001010000
11111111110101010110000
11111111110110001010000
11111111110111110010000
11111111111000101000000
11111111111000101000000
11111111110111110010000
11111111110110111110000
11111111110110111110000
11111111111001000010000
11111111111011011110000
11111111111011011110000
11111111111011011110000
11111111111001110110000
11111111111000001100000
11111111111001110110000
11111111111011011110000
11111111111100010100000
11111111111011000100000
11111111111011000100000
11111111111010101010000
11111111111011011110000
11111111111100101110000
11111111111011011110000
11111111111001011100000
11111111111010010000000
11111111111010010000000
11111111111001110110000
11111111111011000100000
11111111111001011100000
11111111110111011000000
11111111110110100100000
11111111110101110000000
11111111110100000110000
11111111110101010110000
11111111110100100000000
11111111110001010000000
11111111101111001100000
11111111110000000000000
11111111110000000000000
11111111110000011010000
11111111101111100110000
11111111101101001010000
11111111101011000110000
11111111101010101100000
11111111101100101110000
11111111101101111110000
11111111101101001010000
11111111101110011000000
11111111101101001010000
11111111101101111110000
11111111101110011000000
11111111101111001100000
11111111101111001100000
11111111101100010100000
11111111101010101100000
11111111101011000110000
11111111101100101110000
11111111101101111110000
11111111101101111110000
11111111101101001010000
11111111101100010100000
11111111101100101110000
11111111101101001010000
11111111101101111110000
11111111101110110010000
11111111101101100100000
11111111101100010100000
11111111101011111010000
11111111101100101110000
11111111101111001100000
11111111101110110010000
11111111101101100100000
11111111101101001010000
11111111101101001010000
11111111101110110010000
11111111101111001100000
11111111101111100110000
11111111101101111110000
11111111101101001010000
11111111101101100100000
11111111101110011000000
11111111101111001100000
11111111110000011010000
11111111110000000000000
11111111101111100110000
11111111101111100110000
11111111110001010000000
11111111110010000100000
11111111110011010010000
11111111110010000100000
11111111110010000100000
11111111110000110110000
11111111110011101100000
11111111110100100000000
11111111110100100000000
11111111110011010010000
11111111110011010010000
11111111110010111000000
11111111110110100100000
11111111111001011100000
11111111111100101110000
00000000000000011010000
00000000000110001000000
00000000001111001000000
00000000011011011100000
00000000100110000100000
00000000110001001000000
00000000111101000000000
00000001001001101110000
00000001011000000100000
00000001100101001010000
00000001110000001110000
00000001110111100110000
00000001111010000010000
00000001110101001000000
00000001101100111100000
00000001011111011010000
00000001001101110100000
00000000110111101100000
00000000100100000010000
00000000010110111100000
00000000001101111010000
00000000000111110010000
00000000000010011100000
11111111111101100010000
11111111111010010000000
11111111111000101000000
11111111110111011000000
11111111110101110000000
11111111110101010110000
11111111110010111000000
11111111110001101010000
11111111101111001100000
11111111101101001010000
11111111101100101110000
11111111101101100100000
11111111101011111010000
11111111101010101100000
11111111101000101000000
11111111101001000010000
11111111101001111000000
11111111101011000110000
11111111101010101100000
11111111101000101000000
11111111101000001110000
11111111100111000000000
11111111101000101000000
11111111101001111000000
11111111101001011110000
11111111101000101000000
11111111100101110010000
11111111100110100110000
11111111101000001110000
11111111101001000010000
11111111101000001110000
11111111101000101000000
11111111100111110100000
11111111100111011010000
11111111101000101000000
11111111100111110100000
11111111101010010010000
11111111101001111000000
11111111101001000010000
11111111101001011110000
11111111101010101100000
11111111101011111010000
11111111101011111010000
11111111101100010100000
11111111101011111010000
11111111101011000110000
11111111101101001010000
11111111101111001100000
11111111101111100110000
11111111110000000000000
11111111101111100110000
11111111110000011010000
11111111110010000100000
11111111110011010010000
11111111110101010110000
11111111110100100000000
11111111110100000110000
11111111110100100000000
11111111110101010110000
11111111110111110010000
11111111111001000010000
11111111111001000010000
11111111110111110010000
11111111111000001100000
11111111111010101010000
11111111111011111000000
11111111111100101110000
11111111111011111000000
11111111111100010100000
11111111111100010100000
11111111111100101110000
11111111111110110000000
11111111111101111100000
11111111111100010100000
11111111111011000100000
11111111111010101010000
11111111111010010000000
11111111111010010000000
11111111111001011100000
11111111110110111110000
11111111110101110000000
11111111110100111100000
11111111110011101100000
11111111110100000110000
11111111110010111000000
11111111110001010000000
11111111101110011000000
11111111101101111110000
11111111101110110010000
11111111101110110010000
11111111101110011000000
11111111101101111110000
11111111101100101110000
11111111101101001010000
11111111101100010100000
11111111101100010100000
11111111101100010100000
11111111101011111010000
11111111101010101100000
11111111101011000110000
11111111101011100000000
11111111101101001010000
11111111101011111010000
11111111101011111010000
11111111101010010010000
11111111101010010010000
11111111101011000110000
11111111101101001010000
11111111101101001010000
11111111101011100000000
11111111101010101100000
11111111101011100000000
11111111101100101110000
11111111110000000000000
11111111110000000000000
11111111101111001100000
11111111101110011000000
11111111101110110010000
11111111110000000000000
11111111110000110110000
11111111110000110110000
11111111101110110010000
11111111110000011010000
11111111110000000000000
11111111110001010000000
11111111110001101010000
11111111110001010000000
11111111110001010000000
11111111101110011000000
11111111101111100110000
11111111110001010000000
11111111110001010000000
11111111110001010000000
11111111110000011010000
11111111101111100110000
11111111101111001100000
11111111101111100110000
11111111110000000000000
11111111110000011010000
11111111101111100110000
11111111101110011000000
11111111101110110010000
11111111101111100110000
11111111110000000000000
11111111110000000000000
11111111101101100100000
11111111101011111010000
11111111101011100000000
11111111101100010100000
11111111101100101110000
11111111101101001010000
11111111101011111010000
11111111101010101100000
11111111101010101100000
11111111101011111010000
11111111101101100100000
11111111101101100100000
11111111101011111010000
11111111101011000110000
11111111101011111010000
11111111101011000110000
11111111101101001010000
11111111101011111010000
11111111101011000110000
11111111101010010010000
11111111101001011110000
11111111101011100000000
11111111101101100100000
11111111101101001010000
11111111101011100000000
11111111101011111010000
11111111101011100000000
11111111101100101110000
11111111101111001100000
11111111101101111110000
11111111101110011000000
11111111101101001010000
11111111101101100100000
11111111101111001100000
11111111101111001100000
11111111101111001100000
11111111101101111110000
11111111101101001010000
11111111101100010100000
11111111101101100100000
11111111101111001100000
11111111101110011000000
11111111101110110010000
11111111101100010100000
11111111101011111010000
11111111101101100100000
11111111101110110010000
11111111101111001100000
11111111101101100100000
11111111101101001010000
11111111101100101110000
11111111101110011000000
11111111101110110010000
11111111101110011000000
11111111101011111010000
11111111101100101110000
11111111101100010100000
11111111101100010100000
11111111101101111110000
11111111101101100100000
11111111101101100100000
11111111101100010100000
11111111101011111010000
11111111101101100100000
11111111101101100100000
11111111101101100100000
11111111101101100100000
11111111101101111110000
11111111101101111110000
11111111101101100100000
11111111101111001100000
11111111101111100110000
11111111101111100110000
11111111101101001010000
11111111101101100100000
11111111101111001100000
11111111101111100110000
11111111110000011010000
11111111101111001100000
11111111101111100110000
11111111101111001100000
11111111110000011010000
11111111110001101010000
11111111110001010000000
11111111110000110110000
11111111110000110110000
11111111110001101010000
11111111110010011110000
11111111110011101100000
11111111110100000110000
11111111110010011110000
11111111110011010010000
11111111110011101100000
11111111110101110000000
11111111111000101000000
11111111111000101000000
11111111111001110110000
11111111111010101010000
11111111111100010100000
00000000000000000000000
00000000000010110110000
00000000000100000110000
00000000000111110010000
00000000001101111010000
00000000010111110000000
00000000100010011010000
00000000101111100000000
00000000111011011000000
00000001000111010000000
00000001010010101110000
00000001011110100110000
00000001101010011110000
00000001110100101110000
00000001111011101100000
00000001111010011110000
00000001110010101100000
00000001100011111100000
00000001010101001100000
00000001000001111100000
00000000101011011010000
00000000010111010110000
00000000001000100110000
11111111111100101110000
11111111110101110000000
11111111110010111000000
11111111110100111100000
11111111110100111100000
11111111110011101100000
11111111110010000100000
11111111110001101010000
11111111110001101010000
11111111110000011010000
11111111101101100100000
11111111101010101100000
11111111101011000110000
11111111101011000110000
11111111101100010100000
11111111101011000110000
11111111101011100000000
11111111101001011110000
11111111101010101100000
11111111101011000110000
11111111101100101110000
11111111101100101110000
11111111101100010100000
11111111101001000010000
11111111101011000110000
11111111101100010100000
11111111101100010100000
11111111101101111110000
11111111101100101110000
11111111101011111010000
11111111101100010100000
11111111101101001010000
11111111101110011000000
11111111101110110010000
11111111101101001010000
11111111101101001010000
11111111101101111110000
11111111101101111110000
11111111110000000000000
11111111101110110010000
11111111101100101110000
11111111101101100100000
11111111101100101110000
11111111101101100100000
11111111101101111110000
11111111101110011000000
11111111101101001010000
11111111101100101110000
11111111101100101110000
11111111101110011000000
11111111110000011010000
11111111110000110110000
11111111110000011010000
11111111101111001100000
11111111101111100110000
11111111110000011010000
11111111110010011110000
11111111110010011110000
11111111110000110110000
11111111110000000000000
11111111101111100110000
11111111110001101010000
11111111110010111000000
11111111110011010010000
11111111110011010010000
11111111110010000100000
11111111110010011110000
11111111110100100000000
11111111110100111100000
11111111110110100100000
11111111110110100100000
11111111110110100100000
11111111110110100100000
11111111110110111110000
11111111111001110110000
11111111111010101010000
11111111111001110110000
11111111111001110110000
11111111111010010000000
11111111111100010100000
11111111111101100010000
11111111111101111100000
11111111111101001000000
11111111111011011110000
11111111111001011100000
11111111111011000100000
11111111111011011110000
11111111111011000100000
11111111111001110110000
11111111110111110010000
11111111110111110010000
11111111110111110010000
11111111111000101000000
11111111111000001100000
11111111110110100100000
11111111110011101100000
11111111110010111000000
11111111110011101100000
11111111110100000110000
11111111110010111000000
11111111110001101010000
11111111110000110110000
11111111101111100110000
11111111110000000000000
11111111110000110110000
11111111110001010000000
11111111110000000000000
11111111101111001100000
11111111110000000000000
11111111101111100110000
11111111110001101010000
11111111110001101010000
11111111110000110110000
11111111101111100110000
11111111110000110110000
11111111110001010000000
11111111110010000100000
11111111110010011110000
11111111110001101010000
11111111110000000000000
11111111110000000000000
11111111110000011010000
11111111110000110110000
11111111110010011110000
11111111110001010000000
11111111110000110110000
11111111110000011010000
11111111110001010000000
11111111110100100000000
11111111110100000110000
11111111110010011110000
11111111110010111000000
11111111110010011110000
11111111110011010010000
11111111110100100000000
11111111110011101100000
11111111110011010010000
11111111110010111000000
11111111110011101100000
11111111110011101100000
11111111110100000110000
11111111110100100000000
11111111110101010110000
11111111110100111100000
11111111110100000110000
11111111110100100000000
11111111110110001010000
11111111110101110000000
11111111110100100000000
11111111110010111000000
11111111110010000100000
11111111110001101010000
11111111110011010010000
11111111110011010010000
11111111110010011110000
11111111110001101010000
11111111110000000000000
11111111110001101010000
11111111110011010010000
11111111110011010010000
11111111110001101010000
11111111110000000000000
11111111110000000000000
11111111110000110110000
11111111110010000100000
11111111110001010000000
11111111110001101010000
11111111110000110110000
11111111110000110110000
11111111110010000100000
11111111110011010010000
11111111110010111000000
11111111110010011110000
11111111110000011010000
11111111110001010000000
11111111110010011110000
11111111110010111000000
11111111110100000110000
11111111110010011110000
11111111110000011010000
11111111110001101010000
11111111110010011110000
11111111110100100000000
11111111110100111100000
11111111110010111000000
11111111110001101010000
11111111110001010000000
11111111110010011110000
11111111110011101100000
11111111110011010010000
11111111110010011110000
11111111110010011110000
11111111110011101100000
11111111110100111100000
11111111110100100000000
11111111110100111100000
11111111110101010110000
11111111110100000110000
11111111110011010010000
11111111110011010010000
11111111110101110000000
11111111110101010110000
11111111110100000110000
11111111110001101010000
11111111110000110110000
11111111110010111000000
11111111110011101100000
11111111110010111000000
11111111110010111000000
11111111110010000100000
11111111110001010000000
11111111110010000100000
11111111110010111000000
11111111110010111000000
11111111110001101010000
11111111110000011010000
11111111101111100110000
11111111110000000000000
11111111110001010000000
11111111110001010000000
11111111101111100110000
11111111101101111110000
11111111101101100100000
11111111101110011000000
11111111101111100110000
11111111110000110110000
11111111110000110110000
11111111101101111110000
11111111101110011000000
11111111101111100110000
11111111110001010000000
11111111110000011010000
11111111110000000000000
11111111110000000000000
11111111101110011000000
11111111110001010000000
11111111110001010000000
11111111110010000100000
11111111110001101010000
11111111101111100110000
11111111101111100110000
11111111110000110110000
11111111110010011110000
11111111110001101010000
11111111110010000100000
11111111110000011010000
11111111110000110110000
11111111110001010000000
11111111110011101100000
11111111110011010010000
11111111110010111000000
11111111110001010000000
11111111110010000100000
11111111110011101100000
11111111110010111000000
11111111110010111000000
11111111110011010010000
11111111110010011110000
11111111110010111000000
11111111110010011110000
11111111110100000110000
11111111110100000110000
11111111110100000110000
11111111110011101100000
11111111110011101100000
11111111110100111100000
11111111110111011000000
11111111111000001100000
11111111110111110010000
11111111111000001100000
11111111111001000010000
11111111111011000100000
11111111111111001010000
00000000000000011010000
00000000000011101010000
00000000001011000010000
00000000010101101100000
00000000100010110100000
00000000110001100010000
00000001000001001000000
00000001001111011100000
00000001011100001010000
00000001101000011100000
00000001111000011010000
00000010000011111000000
00000010001001101000000
00000010000100101100000
00000001111000011010000
00000001100101100100000
00000001001111110110000
00000000111001010110000
00000000100100000010000
00000000010001001100000
00000000000010000010000
11111111110111110010000
11111111110011010010000
11111111110100111100000
11111111110110111110000
11111111111000101000000
11111111111000101000000
11111111110111110010000
11111111111000101000000
11111111110110100100000
11111111110101110000000
11111111110010111000000
11111111110000011010000
11111111110000000000000
11111111110010000100000
11111111110010000100000
11111111110001101010000
11111111110000110110000
11111111101111001100000
11111111101111001100000
11111111110000000000000
11111111110001010000000
11111111110000011010000
11111111101110110010000
11111111101101111110000
11111111101100101110000
11111111101110011000000
11111111101111001100000
11111111101111100110000
11111111101101100100000
11111111101101001010000
11111111101011111010000
11111111101101111110000
11111111101111100110000
11111111101111100110000
11111111101111001100000
11111111101110011000000
11111111101111001100000
11111111101111001100000
11111111101111100110000
11111111110000000000000
11111111101110011000000
11111111101101100100000
11111111101011111010000
11111111101101100100000
11111111110000000000000
11111111101111100110000
11111111101111001100000
11111111101110110010000
11111111101111100110000
11111111101111100110000
11111111110000011010000
11111111110000110110000
11111111110000011010000
11111111101111001100000
11111111101110110010000
11111111110000011010000
11111111110001010000000
11111111110010111000000
11111111110010011110000
11111111110010011110000
11111111110010111000000
11111111110100000110000
11111111110110100100000
11111111110101110000000
11111111110101110000000
11111111110101010110000
11111111110110001010000
11111111110110111110000
11111111110110111110000
11111111110111011000000
11111111110110100100000
11111111110101110000000
11111111110101110000000
11111111110101010110000
11111111110110111110000
11111111110111110010000
11111111110110001010000
11111111110101110000000
11111111110100100000000
11111111110110111110000
11111111110111011000000
11111111110110100100000
11111111110101110000000
11111111110100111100000
11111111110100100000000
11111111110101110000000
11111111110110001010000
11111111110101110000000
11111111110100100000000
11111111110010111000000
11111111110010011110000
11111111110011010010000
11111111110100000110000
11111111110010011110000
11111111110000011010000
11111111101111100110000
11111111101111001100000
11111111101111001100000
11111111101110011000000
11111111101101100100000
11111111101011100000000
11111111101011000110000
11111111101010101100000
11111111101011100000000
11111111101100101110000
11111111101100010100000
11111111101011100000000
11111111101010010010000
11111111101011000110000
11111111101011111010000
11111111101101001010000
11111111101100101110000
11111111101100010100000
11111111101100010100000
11111111101100101110000
11111111101101111110000
11111111101111100110000
11111111101110110010000
11111111101111001100000
11111111101111001100000
11111111101111001100000
11111111110000011010000
11111111110001010000000
11111111110000011010000
11111111110000000000000
11111111101101111110000
11111111101101111110000
11111111101111100110000
11111111110001010000000
11111111110010000100000
11111111110010000100000
11111111110000011010000
11111111101111100110000
11111111110001101010000
11111111110100000110000
11111111110011101100000
11111111110011010010000
11111111110010011110000
11111111110010000100000
11111111110011010010000
11111111110100100000000
11111111110100100000000
11111111110011010010000
11111111110010000100000
11111111110010011110000
11111111110011010010000
11111111110101010110000
11111111110111011000000
11111111110110001010000
11111111110111011000000
11111111111000001100000
11111111111011111000000
00000000000001001110000
00000000000101101110000
00000000001101000110000
00000000010110000110000
00000000100000010110000
00000000101101000010000
00000000111001110000000
00000001001000000100000
00000001010101001100000
00000001100010101100000
00000001101101010110000
00000001110110110010000
00000001111110111110000
00000010000000001100000
00000001111011101100000
00000001101111110100000
00000001011111110110000
00000001001110101000000
00000000111001010110000
00000000100100000010000
00000000010100011110000
00000000001100101100000
00000000000100000110000
11111111111110110000000
11111111111100010100000
11111111111001011100000
11111111111001000010000
11111111110110111110000
11111111110100111100000
11111111110101010110000
11111111110010111000000
11111111110001010000000
11111111101111001100000
11111111101101001010000
11111111101011111010000
11111111101011000110000
11111111101011111010000
11111111101010101100000
11111111101001000010000
11111111100111110100000
11111111101000001110000
11111111101000001110000
11111111101001111000000
11111111100111110100000
11111111100111011010000
11111111100111000000000
11111111100111000000000
11111111100111110100000
11111111101000101000000
11111111101000001110000
11111111100110100110000
11111111100110100110000
11111111100101110010000
11111111100111000000000
11111111101000001110000
11111111100111110100000
11111111100111000000000
11111111100110001100000
11111111100101110010000
11111111100110001100000
11111111100111110100000
11111111101000101000000
11111111100111011010000
11111111100111000000000
11111111100111000000000
11111111101000101000000
11111111101010010010000
11111111101001111000000
11111111101001011110000
11111111100111011010000
11111111100111110100000
11111111101001111000000
11111111101011111010000
11111111101100101110000
11111111101100010100000
11111111101011100000000
11111111101100101110000
11111111101110110010000
11111111110000011010000
11111111110001010000000
11111111110000011010000
11111111110000000000000
11111111110000000000000
11111111110001101010000
11111111110011101100000
11111111110011101100000
11111111110100000110000
11111111110010111000000
11111111110010011110000
11111111110100111100000
11111111110110111110000
11111111110110100100000
11111111110110111110000
11111111110110100100000
11111111110110100100000
11111111110110111110000
11111111110111011000000
11111111110110100100000
11111111110101110000000
11111111110010011110000
11111111110011010010000
11111111110011010010000
11111111110011010010000
11111111110011101100000
11111111110010011110000
11111111110000110110000
11111111110001010000000
11111111110010011110000
11111111110010011110000
11111111110010111000000
11111111110000110110000
11111111101111100110000
11111111101110110010000
11111111101111100110000
11111111101111100110000
11111111101111100110000
11111111101111100110000
11111111101110011000000
11111111101111001100000
11111111101110011000000
11111111101111001100000
11111111110000011010000
11111111101101111110000
11111111101100010100000
11111111101011111010000
11111111101101100100000
11111111101111001100000
11111111101111001100000
11111111101011111010000
11111111101010010010000
11111111101011000110000
11111111101011111010000
11111111101101001010000
11111111101101001010000
11111111101101001010000
11111111101011111010000
11111111101011100000000
11111111101101100100000
11111111101110011000000
11111111101111100110000
11111111101110011000000
11111111101101001010000
11111111101101100100000
11111111101110011000000
11111111101111100110000
11111111101111100110000
11111111101110110010000
11111111101101100100000
11111111101100010100000
11111111101101001010000
11111111101111100110000
11111111101110011000000
11111111101101100100000
11111111101100101110000
11111111101100101110000
11111111101100101110000
11111111101110011000000
11111111101101100100000
11111111101100010100000
11111111101100010100000
11111111101100010100000
11111111101101100100000
11111111101110110010000
11111111101101111110000
11111111101011100000000
11111111101010010010000
11111111101011100000000
11111111101011100000000
11111111101101100100000
11111111101100101110000
11111111101011111010000
11111111101001011110000
11111111101001111000000
11111111101010010010000
11111111101011000110000
11111111101011111010000
11111111101010010010000
11111111101001111000000
11111111101001111000000
11111111101010101100000
11111111101101001010000
11111111101101111110000
11111111101100010100000
11111111101011100000000
11111111101011111010000
11111111101101001010000
11111111101101001010000
11111111101101100100000
11111111101101100100000
11111111101011100000000
11111111101011111010000
11111111101101001010000
11111111101101111110000
11111111101110110010000
11111111101101100100000
11111111101100101110000
11111111101100010100000
11111111101101111110000
11111111101110011000000
11111111101110011000000
11111111101110011000000
11111111101100101110000
11111111101101001010000
11111111101100101110000
11111111101110011000000
11111111101110011000000
11111111101101111110000
11111111101011111010000
11111111101011000110000
11111111101101001010000
11111111101110110010000
11111111101101111110000
11111111101101001010000
11111111101100010100000
11111111101011100000000
11111111101100101110000
11111111101101100100000
11111111101101111110000
11111111101100101110000
11111111101011111010000
11111111101011111010000
11111111101100101110000
11111111101101100100000
11111111101101111110000
11111111101011000110000
11111111101010101100000
11111111101010010010000
11111111101011100000000
11111111101011000110000
11111111101010010010000
11111111101001111000000
11111111101000101000000
11111111101000001110000
11111111101000101000000
11111111101010010010000
11111111101001000010000
11111111101001111000000
11111111101000101000000
11111111101001111000000
11111111101011111010000
11111111101110110010000
11111111101111001100000
11111111101111001100000
11111111101111100110000
11111111101110110010000
11111111110000110110000
11111111110001010000000
11111111110010000100000
11111111110000110110000
11111111110000000000000
11111111110000000000000
11111111110010011110000
11111111110100111100000
11111111110100000110000
11111111110011101100000
11111111110010000100000
11111111110010111000000
11111111110011101100000
11111111110011101100000
11111111110100000110000
11111111110011010010000
11111111110010111000000
11111111110010111000000
11111111110101110000000
11111111110101110000000
11111111110100100000000
11111111110100000110000
11111111110100100000000
11111111110100100000000
11111111110101110000000
11111111110110111110000
11111111110110111110000
11111111110110001010000
11111111110100111100000
11111111110100000110000
11111111110101110000000
11111111110110001010000
11111111110100111100000
11111111110100100000000
11111111110011101100000
11111111110010111000000
11111111110011010010000
11111111110100000110000
11111111110100100000000
11111111110010111000000
11111111110010011110000
11111111110011101100000
11111111110101010110000
11111111110110111110000
11111111110110111110000
11111111111001110110000
11111111111001000010000
11111111111101001000000
00000000000100000110000
00000000001111100100000
00000000011001110010000
00000000100101010000000
00000000101111100000000
00000000111101011100000
00000001001100100110000
00000001011001101100000
00000001100011111100000
00000001101101110000000
00000001110110110010000
00000001111001101000000
00000001110101111100000
00000001101010011110000
00000001011001101100000
00000001000011111110000
00000000101111000110000
00000000011110010010000
00000000010010000000000
00000000001000100110000
00000000000000110100000
11111111111011111000000
11111111111001011100000
11111111111001000010000
11111111111100010100000
11111111111011111000000
11111111111001011100000
11111111110110100100000
11111111110100100000000
11111111110100000110000
11111111110011101100000
11111111110011101100000
11111111110011010010000
11111111110010111000000
11111111110000110110000
11111111110000000000000
11111111110000011010000
11111111110001010000000
11111111110001101010000
11111111110000011010000
11111111101110011000000
11111111101101100100000
11111111101111001100000
11111111110000011010000
11111111101111100110000
11111111101110011000000
11111111101100010100000
11111111101100101110000
11111111101100010100000
11111111101101001010000
11111111101101001010000
11111111101011111010000
11111111101010010010000
11111111101010010010000
11111111101010101100000
11111111101010010010000
11111111101011000110000
11111111101000001110000
11111111100111000000000
11111111101001000010000
11111111101001000010000
11111111101001111000000
11111111101011000110000
11111111101010010010000
11111111101001000010000
11111111101001011110000
11111111101011000110000
11111111101001111000000
11111111101011000110000
11111111101011000110000
11111111101001011110000
11111111101001111000000
11111111101010010010000
11111111101100101110000
11111111101100010100000
11111111101100010100000
11111111101011100000000
11111111101011111010000
11111111101101111110000
11111111101111001100000
11111111110000000000000
11111111110000110110000
11111111110000000000000
11111111110010011110000
11111111110010111000000
11111111110100100000000
11111111110100100000000
11111111110010111000000
11111111110011010010000
11111111110011101100000
11111111110110001010000
11111111111001011100000
11111111111010010000000
11111111111010010000000
11111111111100010100000
11111111111110010110000
00000000000001101000000
00000000000010110110000
00000000000010011100000
00000000000000110100000
11111111111111100100000
11111111111111001010000
00000000000000011010000
00000000000001001110000
11111111111111001010000
11111111111110010110000
11111111111011000100000
11111111111010101010000
11111111111010101010000
11111111111011011110000
11111111111001011100000
11111111110110100100000
11111111110100100000000
11111111110011101100000
11111111110010111000000
11111111110100000110000
11111111110010111000000
11111111110001010000000
11111111110000110110000
11111111101111001100000
11111111101111001100000
11111111110001010000000
11111111101111100110000
11111111101110011000000
11111111101100101110000
11111111101110011000000
11111111101111001100000
11111111101111100110000
11111111110000000000000
11111111101110110010000
11111111101101100100000
11111111101101111110000
11111111101110011000000
11111111101111100110000
11111111101110110010000
11111111101101111110000
11111111101101100100000
11111111101101001010000
11111111101111001100000
11111111110000011010000
11111111110000011010000
11111111110000011010000
11111111110000000000000
11111111110000000000000
11111111110010011110000
11111111110011101100000
11111111110100111100000
11111111110100000110000
11111111110010000100000
11111111110001101010000
11111111110011010010000
11111111110100111100000
11111111110101010110000
11111111110100100000000
11111111110011010010000
11111111110010011110000
11111111110011010010000
11111111110101110000000
11111111110110001010000
11111111110101110000000
11111111110110001010000
11111111110101110000000
11111111110110111110000
11111111110110111110000
11111111110111011000000
11111111110100111100000
11111111110100111100000
11111111110100100000000
11111111110100000110000
11111111110101010110000
11111111110100111100000
11111111110011010010000
11111111110010000100000
11111111110001010000000
11111111110010111000000
11111111110010111000000
11111111110010000100000
11111111110000110110000
11111111101111100110000
11111111101111100110000
11111111110000000000000
11111111110000110110000
11111111110000110110000
11111111101111001100000
11111111101110011000000
11111111101100101110000
11111111101110110010000
11111111101110110010000
11111111110000000000000
11111111101110110010000
11111111101101111110000
11111111101111001100000
11111111110000110110000
11111111110010000100000
11111111110010111000000
11111111110001010000000
11111111110010011110000
11111111110100111100000
11111111110110100100000
11111111111001110110000
11111111111011011110000
11111111111100101110000
11111111111111100100000
00000000001000100110000
00000000010011101010000
00000000011111111100000
00000000101010100110000
00000000110101001110000
00000001000001001000000
00000001001110001110000
00000001011011110000000
00000001100111001110000
00000001110000101000000
00000001110101001000000
00000001110010010000000
00000001100100110000000
00000001010011001000000
00000000111111000100000
00000000100111010100000
00000000010100111000000
00000000001001000000000
00000000000010000010000
11111111111110110000000
11111111111110110000000
11111111111110010110000
11111111111100010100000
11111111111000101000000
11111111110110111110000
11111111110100000110000
11111111110100100000000
11111111110010111000000
11111111110000110110000
11111111101111001100000
11111111101110011000000
11111111101101100100000
11111111101110011000000
11111111101101111110000
11111111101100101110000
11111111101011100000000
11111111101011000110000
11111111101011100000000
11111111101100101110000
11111111101101100100000
11111111101100010100000
11111111101011000110000
11111111101010101100000
11111111101100010100000
11111111101101111110000
11111111101101111110000
11111111101101001010000
11111111101100010100000
11111111101101001010000
11111111101101100100000
11111111101111100110000
11111111101111100110000
11111111101111100110000
11111111101101001010000
11111111101101100100000
11111111110000011010000
11111111110001010000000
11111111110000011010000
11111111110000011010000
11111111101110110010000
11111111101111001100000
11111111110000110110000
11111111110011010010000
11111111110010111000000
11111111110000110110000
11111111110000110110000
11111111110000011010000
11111111110010000100000
11111111110011101100000
11111111110100000110000
11111111110100000110000
11111111110010011110000
11111111110011010010000
11111111110101010110000
11111111110110100100000
11111111110101110000000
11111111110100000110000
11111111110100000110000
11111111110100111100000
11111111110110001010000
11111111111001011100000
11111111111001000010000
11111111111000101000000
11111111111001011100000
11111111111010010000000
11111111111011011110000
11111111111100010100000
11111111111011000100000
11111111111001011100000
11111111111000001100000
11111111111001000010000
11111111111000101000000
11111111111010010000000
11111111110110111110000
11111111110110111110000
11111111110101110000000
11111111110101010110000
11111111110110001010000
11111111110110100100000
11111111110101010110000
11111111110010111000000
11111111110010011110000
11111111110011010010000
11111111110011010010000
11111111110100000110000
11111111110011101100000
11111111110010111000000
11111111110010000100000
11111111110010000100000
11111111110010011110000
11111111110010111000000
11111111110001010000000
11111111110000011010000
11111111101110110010000
11111111101110011000000
11111111101110110010000
11111111101111100110000
11111111101111001100000
11111111101110011000000
11111111101100101110000
11111111101101001010000
11111111101011111010000
11111111101110110010000
11111111101110110010000
11111111101110011000000
11111111101011111010000
11111111101100101110000
11111111101101001010000
11111111101101100100000
11111111101101001010000
11111111101100101110000
11111111101010010010000
11111111101010101100000
11111111101101001010000
11111111101110011000000
11111111101101001010000
11111111101100101110000
11111111101101001010000
11111111101101111110000
11111111101110110010000
11111111110000110110000
11111111110001010000000
11111111110001101010000
11111111110001010000000
11111111110000110110000
11111111110001101010000
11111111110011010010000
11111111110010011110000
11111111110011010010000
11111111110010111000000
11111111110010000100000
11111111110010111000000
11111111110100000110000
11111111110100100000000
11111111110100100000000
11111111110011010010000
11111111110011101100000
11111111110100111100000
11111111110110111110000
11111111110101110000000
11111111110101010110000
11111111110100000110000
11111111110010111000000
11111111110100111100000
11111111110101110000000
11111111110110100100000
11111111110101010110000
11111111110100111100000
11111111110011101100000
11111111110100000110000
11111111110101110000000
11111111110100111100000
11111111110010011110000
11111111110000110110000
11111111110001010000000
11111111110001010000000
11111111110010000100000
11111111110001010000000
11111111110000110110000
11111111101111100110000
11111111110000000000000
11111111110000011010000
11111111110010000100000
11111111110001010000000
11111111110000011010000
11111111110000000000000
11111111110000011010000
11111111110000011010000
11111111110010000100000
11111111110001101010000
11111111101111100110000
11111111101110110010000
11111111101110011000000
11111111110000000000000
11111111110000011010000
11111111110000110110000
11111111110000011010000
11111111101111001100000
11111111101110110010000
11111111110000000000000
11111111110000110110000
11111111110000011010000
11111111101101111110000
11111111101100010100000
11111111101100101110000
11111111101111001100000
11111111110001010000000
11111111110000110110000
11111111110000110110000
11111111110000011010000
11111111110001101010000
11111111110101010110000
11111111111000001100000
11111111111001011100000
11111111111000001100000
11111111110110111110000
11111111110111011000000
11111111111001110110000
11111111111011011110000
11111111111011011110000
11111111111011000100000
11111111111010101010000
11111111111011000100000
11111111111100101110000
11111111111110010110000
11111111111110010110000
11111111111101100010000
11111111111011111000000
11111111111011111000000
11111111111100101110000
11111111111100101110000
11111111111010101010000
11111111111001110110000
11111111111000001100000
11111111110110111110000
11111111110111110010000
11111111111001000010000
11111111110111110010000
11111111110110001010000
11111111110100111100000
11111111110101010110000
11111111110111011000000
11111111111001110110000
11111111111010101010000
11111111111100101110000
11111111111101100010000
00000000000000110100000
00000000000111010110000
00000000010010000000000
00000000011100010000000
00000000101000100010000
00000000110101101010000
00000001000011111110000
00000001010011111100000
00000001100001011110000
00000001101101010110000
00000001111001101000000
00000010000001011010000
00000010000100101100000
00000001111110001010000
00000001101101110000000
00000001011000000100000
00000000111011110010000
00000000100011101000000
00000000001111001000000
00000000000011010000000
11111111111001110110000
11111111110010011110000
11111111110001010000000
11111111110010011110000
11111111110100111100000
11111111110101010110000
11111111110110001010000
11111111110100100000000
11111111110011101100000
11111111110010011110000
11111111110001010000000
11111111110001010000000
11111111110001010000000
11111111110000000000000
11111111110001010000000
11111111110010000100000
11111111110010111000000
11111111110100000110000
11111111110101010110000
11111111110110001010000
11111111110101110000000
11111111110101110000000
11111111110110001010000
11111111110101110000000
11111111110101110000000
11111111110101110000000
11111111110101010110000
11111111110100000110000
11111111110011101100000
11111111110011101100000
11111111110101110000000
11111111110100100000000
11111111110011010010000
11111111110010011110000
11111111110001101010000
11111111110011010010000
11111111110011101100000
11111111110010011110000
11111111110000011010000
11111111101111100110000
11111111101111001100000
11111111110001010000000
11111111110001101010000
11111111110001101010000
11111111110000000000000
11111111110000000000000
11111111101110110010000
11111111101111100110000
11111111110000110110000
11111111110001010000000
11111111110000011010000
11111111110000000000000
11111111110001010000000
11111111110001010000000
11111111110010000100000
11111111110010111000000
11111111110001101010000
11111111110000110110000
11111111110010000100000
11111111110010011110000
11111111110110001010000
11111111110101010110000
11111111110101110000000
11111111110110001010000
11111111110110100100000
11111111111001000010000
11111111111011011110000
11111111111010101010000
11111111111001011100000
11111111111010101010000
11111111111010101010000
11111111111100101110000
11111111111110010110000
11111111111111100100000
11111111111110110000000
11111111111101111100000
11111111111110110000000
11111111111110110000000
11111111111111001010000
11111111111101001000000
11111111111010101010000
11111111111001011100000
11111111111010010000000
11111111111010101010000
11111111111010101010000
11111111111000101000000
11111111110111011000000
11111111110110001010000
11111111110110100100000
11111111110110100100000
11111111111000001100000
11111111110111110010000
11111111110110100100000
11111111110101010110000
11111111110011101100000
11111111110011101100000
11111111110011101100000
11111111110100111100000
11111111110011010010000
11111111110001010000000
11111111110001010000000
11111111110010000100000
11111111110010011110000
11111111110001101010000
11111111110000011010000
11111111101110011000000
11111111101110110010000
11111111110000011010000
11111111110001010000000
11111111110000011010000
11111111101111100110000
11111111101111001100000
11111111101101111110000
11111111101110011000000
11111111110000110110000
11111111110000110110000
11111111110001010000000
11111111101111001100000
11111111101111001100000
11111111110001101010000
11111111110011010010000
11111111110011101100000
11111111110010000100000
11111111110010111000000
11111111110010011110000
11111111110011010010000
11111111110100100000000
11111111110101110000000
11111111110101110000000
11111111110101010110000
11111111110110001010000
11111111111000001100000
11111111111001011100000
11111111111000101000000
11111111110111110010000
11111111110110111110000
11111111110110100100000
11111111110111011000000
11111111111000101000000
11111111111001000010000
11111111110111110010000
11111111110110001010000
11111111110110111110000
11111111111001011100000
11111111111001110110000
11111111111011011110000
11111111111100101110000
11111111111111100100000
00000000000001001110000
00000000000111110010000
00000000001111111110000
00000000011010001100000
00000000100100110110000
00000000101111100000000
00000000111101110110000
00000001001111000010000
00000001011111000000000
00000001101101010110000
00000001110101111100000
00000001111100100000000
00000010000001000000000
00000001111111110010000
00000001110101001000000
00000001100001011110000
00000001001000111010000
00000000101111000110000
00000000011001110010000
00000000001101000110000
00000000000110100010000
00000000000001001110000
11111111111011000100000
11111111111001000010000
11111111111000101000000
11111111111001011100000
11111111111001000010000
11111111110110001010000
11111111110011010010000
11111111110001010000000
11111111101111001100000
11111111101111100110000
11111111110000011010000
11111111101110011000000
11111111101101001010000
11111111101100101110000
11111111101100010100000
11111111101110011000000
11111111101101111110000
11111111101101100100000
11111111101101001010000
11111111101011111010000
11111111101011100000000
11111111101011000110000
11111111101011111010000
11111111101011100000000
11111111101011000110000
11111111101001111000000
11111111101000001110000
11111111101000101000000
11111111101010101100000
11111111101001011110000
11111111101001000010000
11111111101001000010000
11111111101001000010000
11111111101001011110000
11111111101011100000000
11111111101010101100000
11111111101010101100000
11111111101001000010000
11111111100111110100000
11111111101001000010000
11111111101001011110000
11111111101000101000000
11111111101000001110000
11111111101000101000000
11111111100111110100000
11111111101001000010000
11111111101100010100000
11111111101100101110000
11111111101101111110000
11111111101100010100000
11111111101110110010000
11111111101111100110000
11111111110010011110000
11111111110010111000000
11111111110010111000000
11111111110001101010000
11111111110001101010000
11111111110100100000000
11111111110110100100000
11111111110111011000000
11111111110111011000000
11111111110111110010000
11111111111000001100000
11111111111001110110000
11111111111011011110000
11111111111011111000000
11111111111011111000000
11111111111100010100000
11111111111011111000000
11111111111101001000000
11111111111111100100000
11111111111110110000000
11111111111100101110000
11111111111001110110000
11111111110111110010000
11111111110111110010000
11111111111001011100000
11111111110111011000000
11111111110101110000000
11111111110011101100000
11111111110010111000000
11111111110011010010000
11111111110011101100000
11111111110010000100000
11111111110010000100000
11111111110000011010000
11111111101111001100000
11111111110000000000000
11111111101111001100000
11111111101111100110000
11111111101110011000000
11111111101100010100000
11111111101100101110000
11111111101100101110000
11111111101100101110000
11111111101011100000000
11111111101011100000000
11111111101001111000000
11111111101001011110000
11111111101011000110000
11111111101100010100000
11111111101011100000000
11111111101011100000000
11111111101011000110000
11111111101011111010000
11111111101100101110000
11111111101110110010000
11111111101111001100000
11111111101100101110000
11111111101011000110000
11111111101100101110000
11111111101110011000000
11111111110000011010000
11111111110001010000000
11111111110000000000000
11111111101110110010000
11111111101111100110000
11111111110001010000000
11111111110010111000000
11111111110001101010000
11111111101111100110000
11111111101110110010000
11111111101111100110000
11111111110001101010000
11111111110011010010000
11111111110011010010000
11111111110010111000000
11111111110010000100000
11111111110010011110000
11111111110011101100000
11111111110011010010000
11111111110010011110000
11111111110010000100000
11111111110000110110000
11111111110000000000000
11111111110001010000000
11111111110010000100000
11111111110001010000000
11111111110000110110000
11111111101111100110000
11111111101110011000000
11111111101111100110000
11111111110000011010000
11111111101110110010000
11111111101111001100000
11111111101110011000000
11111111101110011000000
11111111101101111110000
11111111101110110010000
11111111101111001100000
11111111101101100100000
11111111101011111010000
11111111101011111010000
11111111101011111010000
11111111101111001100000
11111111101110011000000
11111111101101100100000
11111111101100101110000
11111111101100010100000
11111111101100101110000
11111111101101100100000
11111111101100101110000
11111111101011111010000
11111111101011000110000
11111111101011100000000
11111111101100101110000
11111111101101111110000
11111111101111001100000
11111111101110110010000
11111111101111001100000
11111111110000011010000
11111111110010000100000
11111111110011010010000
11111111110010011110000
11111111110010011110000
11111111110010011110000
11111111110011010010000
11111111110011101100000
11111111110101010110000
11111111110100000110000
11111111110011101100000
11111111110011010010000
11111111110011010010000
11111111110100000110000
11111111110110001010000
11111111110101110000000
11111111110011101100000
11111111110100111100000
11111111110011101100000
11111111110100111100000
11111111110101010110000
11111111110100111100000
11111111110010111000000
11111111110011010010000
11111111110100100000000
11111111110101010110000
11111111110110100100000
11111111110101110000000
11111111110100000110000
11111111110011101100000
11111111110010011110000
11111111110011101100000
11111111110110100100000
11111111110110111110000
11111111110111110010000
11111111110111110010000
11111111111001000010000
11111111111100101110000
00000000000000011010000
00000000000101101110000
00000000001101100000000
00000000010111010110000
00000000100010011010000
00000000101101111000000
00000000111010100100000
00000001000111010000000
00000001010100011000000
00000001011111000000000
00000001101000110110000
00000001110001110110000
00000001111000000000000
00000001110100010100000
00000001101000110110000
00000001011010111010000
00000001001000011110000
00000000110011100110000
00000000100001100100000
00000000010010110100000
00000000001000100110000
11111111111110110000000
11111111110111110010000
11111111110110111110000
11111111110110111110000
11111111110110111110000
11111111110101010110000
11111111110010111000000
11111111101111100110000
11111111110000011010000
11111111110000000000000
11111111101101100100000
11111111101101100100000
11111111101100101110000
11111111101101001010000
11111111101101100100000
11111111101111100110000
11111111110000011010000
11111111101110110010000
11111111101111100110000
11111111110000000000000
11111111110001010000000
11111111110010000100000
11111111110000110110000
11111111110000110110000
11111111101111001100000
11111111101111001100000
11111111101111100110000
11111111110000000000000
11111111101110110010000
11111111101110011000000
11111111101100101110000
11111111101101111110000
11111111101101001010000
11111111101101111110000
11111111101101100100000
11111111101100010100000
11111111101011000110000
11111111101001111000000
11111111101011000110000
11111111101100010100000
11111111101011111010000
11111111101001111000000
11111111101001000010000
11111111101001011110000
11111111101001011110000
11111111101010101100000
11111111101010101100000
11111111101001011110000
11111111100111110100000
11111111101011000110000
11111111101011111010000
11111111101101001010000
11111111101101001010000
11111111101011100000000
11111111101100010100000
11111111101100010100000
11111111101101100100000
11111111101111100110000
11111111110000000000000
11111111110000011010000
11111111110000000000000
11111111110000110110000
11111111110001010000000
11111111110010111000000
11111111110011010010000
11111111110011010010000
11111111110011010010000
11111111110011010010000
11111111110100000110000
11111111110101010110000
11111111110110111110000
11111111110110111110000
11111111110111110010000
11111111111000101000000
11111111111001000010000
11111111111011011110000
11111111111101001000000
11111111111011011110000
11111111111001011100000
11111111111000101000000
11111111111010010000000
11111111111010101010000
11111111111010010000000
11111111111000101000000
11111111110101110000000
11111111110100100000000
11111111110101010110000
11111111110100111100000
11111111110100111100000
11111111110010111000000
11111111110001010000000
11111111110001101010000
11111111110001101010000
11111111110010000100000
11111111110001101010000
11111111110000011010000
11111111101110110010000
11111111101101100100000
11111111101101111110000
11111111101110011000000
11111111101100101110000
11111111101100101110000
11111111101010101100000
11111111101010101100000
11111111101011000110000
11111111101011100000000
11111111101011100000000
11111111101010010010000
11111111101001011110000
11111111101001111000000
11111111101010101100000
11111111101011100000000
11111111101010010010000
11111111101010101100000
11111111101001011110000
11111111101001011110000
11111111101010010010000
11111111101011111010000
11111111101011100000000
11111111101010101100000
11111111101001000010000
11111111101001111000000
11111111101011100000000
11111111101100101110000
11111111101100101110000
11111111101011111010000
11111111101100010100000
11111111101100010100000
11111111101111001100000
11111111110000011010000
11111111110001010000000
11111111110001010000000
11111111101111100110000
11111111101111100110000
11111111110001010000000
11111111110010011110000
11111111110010000100000
11111111110010000100000
11111111110001101010000
11111111110001101010000
11111111110010000100000
11111111110011101100000
11111111110011010010000
11111111110001010000000
11111111110001010000000
11111111101111100110000
11111111110000110110000
11111111110010011110000
11111111110001101010000
11111111110000000000000
11111111101111100110000
11111111101110110010000
11111111110000011010000
11111111110010000100000
11111111110001101010000
11111111110001010000000
11111111110010000100000
11111111110001101010000
11111111110010111000000
11111111110011010010000
11111111110011010010000
11111111110010000100000
11111111110001010000000
11111111110000110110000
11111111110000110110000
11111111110010000100000
11111111110001101010000
11111111101111001100000
11111111101111001100000
11111111101111001100000
11111111101111100110000
11111111110000011010000
11111111110000000000000
11111111101111001100000
11111111101101001010000
11111111101101100100000
11111111101110110010000
11111111101111100110000
11111111101110011000000
11111111101100101110000
11111111101100010100000
11111111101100010100000
11111111101101111110000
11111111101110110010000
11111111101110110010000
11111111101011111010000
11111111101011100000000
11111111101100010100000
11111111101100101110000
11111111101101100100000
11111111101101100100000
11111111101101001010000
11111111101011111010000
11111111101101001010000
11111111101101001010000
11111111101111100110000
11111111110000000000000
11111111101110011000000
11111111101110110010000
11111111110000000000000
11111111110010000100000
11111111110100000110000
11111111110010111000000
11111111110010011110000
11111111110010000100000
11111111110010000100000
11111111110010011110000
11111111110010111000000
11111111110010000100000
11111111110001101010000
11111111110001101010000
11111111110010000100000
11111111110010011110000
11111111110011010010000
11111111110010000100000
11111111110000110110000
11111111101111100110000
11111111110000000000000
11111111110000110110000
11111111110011101100000
11111111110100000110000
11111111110011010010000
11111111110001101010000
11111111110010000100000
11111111110010011110000
11111111110100100000000
11111111110011101100000
11111111110011101100000
11111111110010000100000
11111111110010000100000
11111111110011101100000
11111111110101010110000
11111111110101110000000
11111111110100111100000
11111111110100000110000
11111111110010011110000
11111111110100100000000
11111111110100111100000
11111111110011101100000
11111111110100000110000
11111111110010111000000
11111111110010111000000
11111111110011010010000
11111111110100000110000
11111111110011010010000
11111111110010000100000
11111111110000110110000
11111111110001010000000
11111111110011101100000
11111111110110100100000
11111111110111110010000
11111111111001000010000
11111111111001011100000
11111111111011111000000
00000000000001101000000
00000000001010001110000
00000000010101010010000
00000000011101111000000
00000000100111101110000
00000000110010011000000
00000000111111000100000
00000001001011110000000
00000001010110000000000
00000001011111000000000
00000001101000000010000
00000001101110100100000
00000001101111011010000
00000001101001101010000
00000001011110001100000
00000001001101000000000
00000000110111101100000
00000000100100110110000
00000000010111010110000
00000000001100101100000
00000000000100000110000
11111111111101100010000
11111111111001000010000
11111111110111110010000
11111111111000101000000
11111111110111011000000
11111111110110001010000
11111111110100000110000
11111111110010000100000
11111111110001010000000
11111111110001010000000
11111111110010011110000
11111111110001101010000
11111111110000011010000
11111111110001010000000
11111111110001010000000
11111111110010000100000
11111111110010000100000
11111111110001010000000
11111111101111100110000
11111111101110011000000
11111111101110011000000
11111111101101111110000
11111111101111001100000
11111111101111100110000
11111111101110011000000
11111111101101100100000
11111111101101100100000
11111111101110110010000
11111111110000000000000
11111111101111001100000
11111111101101111110000
11111111101101001010000
11111111101101001010000
11111111101101100100000
11111111101111001100000
11111111101111100110000
11111111101101100100000
11111111101100010100000
11111111101101001010000
11111111101110110010000
11111111101111001100000
11111111101111100110000
11111111101110011000000
11111111101101111110000
11111111101110011000000
11111111101110110010000
11111111110000011010000
11111111101111100110000
11111111101111001100000
11111111101110011000000
11111111101111100110000
11111111101111100110000
11111111110001010000000
11111111110000000000000
11111111101111100110000
11111111101111100110000
11111111101111100110000
11111111101111100110000
11111111110010000100000
11111111110001010000000
11111111110000011010000
11111111101111001100000
11111111101110110010000
11111111101111100110000
11111111110000110110000
11111111101111001100000
11111111110000000000000
11111111110000000000000
11111111110000110110000
11111111110010111000000
11111111110100100000000
11111111110110001010000
11111111110101110000000
11111111110011010010000
11111111110100111100000
11111111110110111110000
11111111111001110110000
11111111111010010000000
11111111111001110110000
11111111111000101000000
11111111111000001100000
11111111111001110110000
11111111111010101010000
11111111111010101010000
11111111111001011100000
11111111110111110010000
11111111111000001100000
11111111111001000010000
11111111111001000010000
11111111111001000010000
11111111110110111110000
11111111110110100100000
11111111110100000110000
11111111110100100000000
11111111110100111100000
11111111110100000110000
11111111110011101100000
11111111110010000100000
11111111110000011010000
11111111110010000100000
11111111110010011110000
11111111110010000100000
11111111110000000000000
11111111101111001100000
11111111101101100100000
11111111101111001100000
11111111110000011010000
11111111110000000000000
11111111101110110010000
11111111101101111110000
11111111101110011000000
11111111101110110010000
11111111101111001100000
11111111101111100110000
11111111101110011000000
11111111101011111010000
11111111101011000110000
11111111101101001010000
11111111101101111110000
11111111101101001010000
11111111101101100100000
11111111101011111010000
11111111101100010100000
11111111101101001010000
11111111101101111110000
11111111101101111110000
11111111101011111010000
11111111101010101100000
11111111101010010010000
11111111101011100000000
11111111101011111010000
11111111101011000110000
11111111101001011110000
11111111101000001110000
11111111100111000000000
11111111100111110100000
11111111101000101000000
11111111101001111000000
11111111101000101000000
11111111100111110100000
11111111101000001110000
11111111101001111000000
11111111101010101100000
11111111101001011110000
11111111101001000010000
11111111101001011110000
11111111101001011110000
11111111101011000110000
11111111101101100100000
11111111101110011000000
11111111101101100100000
11111111101101100100000
11111111101101100100000
11111111101110110010000
11111111101111001100000
11111111101111001100000
11111111101110110010000
11111111101101111110000
11111111110000011010000
11111111110001101010000
11111111110100100000000
11111111110100111100000
11111111110100100000000
11111111110100111100000
11111111110101110000000
11111111110110111110000
11111111111001000010000
11111111111001000010000
11111111110111110010000
11111111110110100100000
11111111110101010110000
11111111110110100100000
11111111111000001100000
11111111111000001100000
11111111110110111110000
11111111110110001010000
11111111110100111100000
11111111110101110000000
11111111110110111110000
11111111110111110010000
11111111110110001010000
11111111110101010110000
11111111110101010110000
11111111110110001010000
11111111110110100100000
11111111110101110000000
11111111110100111100000
11111111110011101100000
11111111110011010010000
11111111110100000110000
11111111110100111100000
11111111110100111100000
11111111110010111000000
11111111110001010000000
11111111110001010000000
11111111110010000100000
11111111110011010010000
11111111110010000100000
11111111110000000000000
11111111101101111110000
11111111101101100100000
11111111101110011000000
11111111101111100110000
11111111101110011000000
11111111101101100100000
11111111101100010100000
11111111101001011110000
11111111101100010100000
11111111101100010100000
11111111101001111000000
11111111101010010010000
11111111101000101000000
11111111101001111000000
11111111101011100000000
11111111101100010100000
11111111101110011000000
11111111101100101110000
11111111101100101110000
11111111101100101110000
11111111101110110010000
11111111110000011010000
11111111110000000000000
11111111110000011010000
11111111110000011010000
11111111110001101010000
11111111110010000100000
11111111110010111000000
11111111110010000100000
11111111110001010000000
11111111110001010000000
11111111110010000100000
11111111110010111000000
11111111110100111100000
11111111110100100000000
11111111110100000110000
11111111110101010110000
11111111111000001100000
11111111111011000100000
00000000000000000000000
00000000000010110110000
00000000000101010100000
00000000001101100000000
00000000010111010110000
00000000100100000010000
00000000110010110010000
00000000111111000100000
00000001001100001010000
00000001011000111000000
00000001100101111110000
00000001110010010000000
00000001111101101110000
00000010000111001010000
00000010001010110110000
00000010000110110000000
00000001111100000110000
00000001101011101110000
00000001010110110100000
00000000111110101010000
00000000100111010100000
00000000010100111000000
00000000000110111100000
11111111111101001000000
11111111110111011000000
11111111110101110000000
11111111110100100000000
11111111110101010110000
11111111110101110000000
11111111110110100100000
11111111110110001010000
11111111110100000110000
11111111110000110110000
11111111101110011000000
11111111101100101110000
11111111101101001010000
11111111101101100100000
11111111101011100000000
11111111101010101100000
11111111100111110100000
11111111101000001110000
11111111100111110100000
11111111100111110100000
11111111100101110010000
11111111100100111100000
11111111100010000110000
11111111100010000110000
11111111100010111010000
11111111100010111010000
11111111100010111010000
11111111100010111010000
11111111100000110110000
11111111100001101100000
11111111100010111010000
11111111100101011000000
11111111100100100010000
11111111100100100010000
11111111100011101110000
11111111100100111100000
11111111100111011010000
11111111101010010010000
11111111101011100000000
11111111101011111010000
11111111101011000110000
11111111101011000110000
11111111101100010100000
11111111101110011000000
11111111101110110010000
11111111110000000000000
11111111110000000000000
11111111110010011110000
11111111110100111100000
11111111110101110000000
11111111110110001010000
11111111110101110000000
11111111110100111100000
11111111110110001010000
11111111110110111110000
11111111111000101000000
11111111111000001100000
11111111111000001100000
11111111110111011000000
11111111110111110010000
11111111111001000010000
11111111111010101010000
11111111111011000100000
11111111111010010000000
11111111111001011100000
11111111111001110110000
11111111111011000100000
11111111111011111000000
11111111111100101110000
11111111111100010100000
11111111111001110110000
11111111111001110110000
11111111111011111000000
11111111111011011110000
11111111111101001000000
11111111111100101110000
11111111111010101010000
11111111111011000100000
11111111111100101110000
11111111111100101110000
11111111111100101110000
11111111111010101010000
11111111111001011100000
11111111111001011100000
11111111111010101010000
11111111111001000010000
11111111111000001100000
11111111110110001010000
11111111110100000110000
11111111110011010010000
11111111110100100000000
11111111110100100000000
11111111110011101100000
11111111110001101010000
11111111110000011010000
11111111101111001100000
11111111110000000000000
11111111101111100110000
11111111101110011000000
11111111101100101110000
11111111101011000110000
11111111101011111010000
11111111101101001010000
11111111101100010100000
11111111101011111010000
11111111101010101100000
11111111101001000010000
11111111101000001110000
11111111101001111000000
11111111101001111000000
11111111101001011110000
11111111100111000000000
11111111100111000000000
11111111100110001100000
11111111100101110010000
11111111100111000000000
11111111100110001100000
11111111100100001000000
11111111100011010100000
11111111100011010100000
11111111100100001000000
11111111100100100010000
11111111100100001000000
11111111100010111010000
11111111100010100000000
11111111100010100000000
11111111100011010100000
11111111100100001000000
11111111100011010100000
11111111100011010100000
11111111100100001000000
11111111100101011000000
11111111100110100110000
11111111101000101000000
11111111101001011110000
11111111101001011110000
11111111101010010010000
11111111101011100000000
11111111101101100100000
11111111101111001100000
11111111101111001100000
11111111110000110110000
11111111110000110110000
11111111110010111000000
11111111110011101100000
11111111110101110000000
11111111110101110000000
11111111110101010110000
11111111110100100000000
11111111110101110000000
11111111110110111110000
11111111110110001010000
11111111110110111110000
11111111110110001010000
11111111110101010110000
11111111110100111100000
11111111110100111100000
11111111110101110000000
11111111110100111100000
11111111110100100000000
11111111110011010010000
11111111110010111000000
11111111110100111100000
11111111110110100100000
11111111110100111100000
11111111110100100000000
11111111110011101100000
11111111110011010010000
11111111110100111100000
11111111110101110000000
11111111110101010110000
11111111110011101100000
11111111110010111000000
11111111110010011110000
11111111110011101100000
11111111110100100000000
11111111110100111100000
11111111110010011110000
11111111110010011110000
11111111110011010010000
11111111110100100000000
11111111110100111100000
11111111110011101100000
11111111110100100000000
11111111110011101100000
11111111110100100000000
11111111110101110000000
11111111110111110010000
11111111111000001100000
11111111111001000010000
11111111111001011100000
11111111111011111000000
00000000000000011010000
00000000001000001100000
00000000010001100110000
00000000011100010000000
00000000100101101010000
00000000110001100010000
00000001000001100010000
00000001001111011100000
00000001011100001010000
00000001101000000010000
00000001110010010000000
00000001111010000010000
00000001111010011110000
00000001110000101000000
00000001011110100110000
00000001000110011100000
00000000101101111000000
00000000010111110000000
00000000000110001000000
11111111111001011100000
11111111101110110010000
11111111101010101100000
11111111101011000110000
11111111101100101110000
11111111110000000000000
11111111101110110010000
11111111101111001100000
11111111101101001010000
11111111101010101100000
11111111101011100000000
11111111101011111010000
11111111101011111010000
11111111101011000110000
11111111101010101100000
11111111101001011110000
11111111101001111000000
11111111101100101110000
11111111101110011000000
11111111101110110010000
11111111101111001100000
11111111101110110010000
11111111101111001100000
11111111101111001100000
11111111110000000000000
11111111110000011010000
11111111101111001100000
11111111101110011000000
11111111101111001100000
11111111110000011010000
11111111110000011010000
11111111110000000000000
11111111101101111110000
11111111101101111110000
11111111101110011000000
11111111101110011000000
11111111110000011010000
11111111110000000000000
11111111101110110010000
11111111101101111110000
11111111101110110010000
11111111101110110010000
11111111110000110110000
11111111110000000000000
11111111101110011000000
11111111101101111110000
11111111101110011000000
11111111101111100110000
11111111110001010000000
11111111110000011010000
11111111101111001100000
11111111110000011010000
11111111110000110110000
11111111110001101010000
11111111110010000100000
11111111110011010010000
11111111110010000100000
11111111110000011010000
11111111110000110110000
11111111110010011110000
11111111110010111000000
11111111110010011110000
11111111110011010010000
11111111110010000100000
11111111110010011110000
11111111110100000110000
11111111110100000110000
11111111110011101100000
11111111110010011110000
11111111110001010000000
11111111110000011010000
11111111110001101010000
11111111110010111000000
11111111110001010000000
11111111110000110110000
11111111101111100110000
11111111101111100110000
11111111110000110110000
11111111110000000000000
11111111101111001100000
11111111101101111110000
11111111101100010100000
11111111101100010100000
11111111101101001010000
11111111101101100100000
11111111101101100100000
11111111101100010100000
11111111101011000110000
11111111101011111010000
11111111101100101110000
11111111101101100100000
11111111101101001010000
11111111101011111010000
11111111101011111010000
11111111101011111010000
11111111101101100100000
11111111101110110010000
11111111101110011000000
11111111101101111110000
11111111101100101110000
11111111101101100100000
11111111101110110010000
11111111110010000100000
11111111110010111000000
11111111110001101010000
11111111110001101010000
11111111110001010000000
11111111110010011110000
11111111110010111000000
11111111110010000100000
11111111110001101010000
11111111110000011010000
11111111101111001100000
11111111110001101010000
11111111110010011110000
11111111110010011110000
11111111110001010000000
11111111110000000000000
11111111110000011010000
11111111110001010000000
11111111110010000100000
11111111110001010000000
11111111110000011010000
11111111110000000000000
11111111110000110110000
11111111110000110110000
11111111110000110110000
11111111110001010000000
11111111110000110110000
11111111101111001100000
11111111101111100110000
11111111110001101010000
11111111110000110110000
11111111110000110110000
11111111110001010000000
11111111101111001100000
11111111101111100110000
11111111110001010000000
11111111110010000100000
11111111110000110110000
11111111110000000000000
11111111101111001100000
11111111101111100110000
11111111110001010000000
11111111110001010000000
11111111110000110110000
11111111101111100110000
11111111110000000000000
11111111110000011010000
11111111110010011110000
11111111110100000110000
11111111110101110000000
11111111110110100100000
11111111110110111110000
11111111111001110110000
11111111111111001010000
00000000000110100010000
00000000010000110010000
00000000011010100110000
00000000100100000010000
00000000101111000110000
00000000111100100110000
00000001001010001000000
00000001010110011010000
00000001011111110110000
00000001100111001110000
00000001101011010100000
00000001101010111000000
00000001100011111100000
00000001010101100110000
00000001000011100100000
00000000101100101000000
00000000011000111110000
00000000001010001110000
00000000000010011100000
11111111111011011110000
11111111110100111100000
11111111110000110110000
11111111110000000000000
11111111110010000100000
11111111110010111000000
11111111110010000100000
11111111101111100110000
11111111101110011000000
11111111101101111110000
11111111101110110010000
11111111110000110110000
11111111110000110110000
11111111101111100110000
11111111101101100100000
11111111101101100100000
11111111101100101110000
11111111101101100100000
11111111101101100100000
11111111101011111010000
11111111101011100000000
11111111101011111010000
11111111101011100000000
11111111101101001010000
11111111101011111010000
11111111101010101100000
11111111101001111000000
11111111101001011110000
11111111101001111000000
11111111101010101100000
11111111101010101100000
11111111101000101000000
11111111100111011010000
11111111101000101000000
11111111101000101000000
11111111101001011110000
11111111101001111000000
11111111101001011110000
11111111101000001110000
11111111101001000010000
11111111101010101100000
11111111101011100000000
11111111101010010010000
11111111101001111000000
11111111101000101000000
11111111101001000010000
11111111101010101100000
11111111101011111010000
11111111101011100000000
11111111101010101100000
11111111101010101100000
11111111101010010010000
11111111101100010100000
11111111101101001010000
11111111101101100100000
11111111101100010100000
11111111101011111010000
11111111101011111010000
11111111101100010100000
11111111101100010100000
11111111101100101110000
11111111101011111010000
11111111101010010010000
11111111101010010010000
11111111101011111010000
11111111101101100100000
11111111101101001010000
11111111101100010100000
11111111101100010100000
11111111101101001010000
11111111101101100100000
11111111101101100100000
11111111101101111110000
11111111101111001100000
11111111101110011000000
11111111101101100100000
11111111101111001100000
11111111110001101010000
11111111110000110110000
11111111110000000000000
11111111101110011000000
11111111101111100110000
11111111101111100110000
11111111110000110110000
11111111110001010000000
11111111110000011010000
11111111101110011000000
11111111101110110010000
11111111110000110110000
11111111110010000100000
11111111110001101010000
11111111110000011010000
11111111110000011010000
11111111110000011010000
11111111110010000100000
11111111110010111000000
11111111110001101010000
11111111110000011010000
11111111101111100110000
11111111110000011010000
11111111110000011010000
11111111110010000100000
11111111110000011010000
11111111110000011010000
11111111101100101110000
11111111101110110010000
11111111110000110110000
11111111110001101010000
11111111110000011010000
11111111110000000000000
11111111101111001100000
11111111101110110010000
11111111101111001100000
11111111110000011010000
11111111101111100110000
11111111101110110010000
11111111101110110010000
11111111101101100100000
11111111101110110010000
11111111110000000000000
11111111101111001100000
11111111101110110010000
11111111101101100100000
11111111101101001010000
11111111101110110010000
11111111101111100110000
11111111101110011000000
11111111101101100100000
11111111101100101110000
11111111101100101110000
11111111101101100100000
11111111101110011000000
11111111101100101110000
11111111101100010100000
11111111101011000110000
11111111101011000110000
11111111101100010100000
11111111101100010100000
11111111101011000110000
11111111101000001110000
11111111100110100110000
11111111100111000000000
11111111100111110100000
11111111100111110100000
11111111100111110100000
11111111100110001100000
11111111100100111100000
11111111100100111100000
11111111100101110010000
11111111100110100110000
11111111100111000000000
11111111100111110100000
11111111101000001110000
11111111101001111000000
11111111101101111110000
11111111110010000100000
11111111110100100000000
11111111111000001100000
11111111111110110000000
00000000001010001110000
00000000010110100000000
00000000100010011010000
00000000101101000010000
00000000111001110000000
00000001001000011110000
00000001010111001110000
00000001100100110000000
00000001110000101000000
00000001110110110010000
00000001110101100010000
00000001101001101010000
00000001011010111010000
00000001000110011100000
00000000110001001000000
00000000011110010010000
00000000001111100100000
00000000000101101110000
11111111111110110000000
11111111111011000100000
11111111111011011110000
11111111111001011100000
11111111110111110010000
11111111110101110000000
11111111110010011110000
11111111110001101010000
11111111110001101010000
11111111101110110010000
11111111101100010100000
11111111101011000110000
11111111101001000010000
11111111101001011110000
11111111101010101100000
11111111101010010010000
11111111100111011010000
11111111100101011000000
11111111100110100110000
11111111100111000000000
11111111101000001110000
11111111100111000000000
11111111100110001100000
11111111100101011000000
11111111100100100010000
11111111100101011000000
11111111100101011000000
11111111100101110010000
11111111100011101110000
11111111100010111010000
11111111100010100000000
11111111100010111010000
11111111100100001000000
11111111100010111010000
11111111100000110110000
11111111011111001110000
11111111011110011010000
11111111011111001110000
11111111100001010000000
11111111100000011100000
11111111011111101000000
11111111011101100100000
11111111011101001010000
11111111011110011010000
11111111100000000010000
11111111011111101000000
11111111011101001010000
11111111011110011010000
11111111011110110100000
11111111100000011100000
11111111100011101110000
11111111100011101110000
11111111100100111100000
11111111100100111100000
11111111100101110010000
11111111101000001110000
11111111101001111000000
11111111101011000110000
11111111101000101000000
11111111101000101000000
11111111101010010010000
11111111101100101110000
11111111101110011000000
11111111110001010000000
11111111110001010000000
11111111110001101010000
11111111110011010010000
11111111110100111100000
11111111110111110010000
11111111110111011000000
11111111110110001010000
11111111110101010110000
11111111110101110000000
11111111110101110000000
11111111110101110000000
11111111110101010110000
11111111110100000110000
11111111110011101100000
11111111110011010010000
11111111110010111000000
11111111110011101100000
11111111110010000100000
11111111101111100110000
11111111101110011000000
11111111101101111110000
11111111101111001100000
11111111110000000000000
11111111101110110010000
11111111101100010100000
11111111101011100000000
11111111101011000110000
11111111101011000110000
11111111101011100000000
11111111101100010100000
11111111101010010010000
11111111101001011110000
11111111101000101000000
11111111101001111000000
11111111101011100000000
11111111101011100000000
11111111101010101100000
11111111101000001110000
11111111101000001110000
11111111101001111000000
11111111101010010010000
11111111101001111000000
11111111101000101000000
11111111100111110100000
11111111100111000000000
11111111100110001100000
11111111100111011010000
11111111100111000000000
11111111100101011000000
11111111100011010100000
11111111100011010100000
11111111100011101110000
11111111100011101110000
11111111100011010100000
11111111100011010100000
11111111100001010000000
11111111100010111010000
11111111100010100000000
11111111100011101110000
11111111100011101110000
11111111100010100000000
11111111100001010000000
11111111100010100000000
11111111100011101110000
11111111100101011000000
11111111100101110010000
11111111100110100110000
11111111100100111100000
11111111100101011000000
11111111100111110100000
11111111101010101100000
11111111101011000110000
11111111101010101100000
11111111101010010010000
11111111101011100000000
11111111101100101110000
11111111101111100110000
11111111101111100110000
11111111110000110110000
11111111110001010000000
11111111110001010000000
11111111110011010010000
11111111110100000110000
11111111110100000110000
11111111110011010010000
11111111110001101010000
11111111110001101010000
11111111110001101010000
11111111110011101100000
11111111110100111100000
11111111110100000110000
11111111110010111000000
11111111110011010010000
11111111110100000110000
11111111110100100000000
11111111110011101100000
11111111110010111000000
11111111110000110110000
11111111110001101010000
11111111110001101010000
11111111110010111000000
11111111110010111000000
11111111110000110110000
11111111110001010000000
11111111110001010000000
11111111110010111000000
11111111110100100000000
11111111110100100000000
11111111110010000100000
11111111110010011110000
11111111110010011110000
11111111110011101100000
11111111110101010110000
11111111110101110000000
11111111110100111100000
11111111110100111100000
11111111110110100100000
11111111111001000010000
11111111111011011110000
11111111111101111100000
00000000000011101010000
00000000001011111000000
00000000011000001010000
00000000100011101000000
00000000110001111110000
00000000111111011110000
00000001001011110000000
00000001010110000000000
00000001100011100010000
00000001101111000000000
00000001110011000110000
00000001101111000000000
00000001100010010010000
00000001001110001110000
00000000111001110000000
00000000100010011010000
00000000001111001000000
11111111111111001010000
11111111110011010010000
11111111101101100100000
11111111101100010100000
11111111101110011000000
11111111110000110110000
11111111110000000000000
11111111101110011000000
11111111101101001010000
11111111101100101110000
11111111101101100100000
11111111101011100000000
11111111101011000110000
11111111101010010010000
11111111101000101000000
11111111101001111000000
11111111101011111010000
11111111101110110010000
11111111101111001100000
11111111101101111110000
11111111101101111110000
11111111101101100100000
11111111101110011000000
11111111101101100100000
11111111101110011000000
11111111101100101110000
11111111101011111010000
11111111101100010100000
11111111101101100100000
11111111101110011000000
11111111101101100100000
11111111101101100100000
11111111101101001010000
11111111101100010100000
11111111101101001010000
11111111101101001010000
11111111101011111010000
11111111101101001010000
11111111101011111010000
11111111101100010100000
11111111101100101110000
11111111101100101110000
11111111101101100100000
11111111101100010100000
11111111101011111010000
11111111101100010100000
11111111101101001010000
11111111101101100100000
11111111101110011000000
11111111101101001010000
11111111101100101110000
11111111101101111110000
11111111101101001010000
11111111101110110010000
11111111101111001100000
11111111101110110010000
11111111101101111110000
11111111101110011000000
11111111101111001100000
11111111101111001100000
11111111110000000000000
11111111101110011000000
11111111101111100110000
11111111101111001100000
11111111101101111110000
11111111101111100110000
11111111110000000000000
11111111101110011000000
11111111101110011000000
11111111101101111110000
11111111101111001100000
11111111110000011010000
11111111110000000000000
11111111101111100110000
11111111101101111110000
11111111101101100100000
11111111101101111110000
11111111101111001100000
11111111101110011000000
11111111101101100100000
11111111101100101110000
11111111101100010100000
11111111101101111110000
11111111101111001100000
11111111101110110010000
