11111111100010000110000
11111111100001101100000
11111111100011101110000
11111111100011010100000
11111111100001010000000
11111111100001101100000
11111111100000000010000
11111111100000110110000
11111111100001101100000
11111111100001010000000
11111111100001010000000
11111111011111001110000
11111111011101100100000
11111111011101100100000
11111111011101100100000
11111111011110000000000
11111111011100010110000
11111111011011111100000
11111111011011001000000
11111111011011001000000
11111111011010010100000
11111111011010010100000
11111111011001000100000
11111111010111110110000
11111111010111000010000
11111111010111110110000
11111111010111011100000
11111111010111000010000
11111111010110001110000
11111111010101110010000
11111111010101011000000
11111111010110001110000
11111111010110001110000
11111111010111000010000
11111111010101110010000
11111111010100100100000
11111111010100001010000
11111111010101011000000
11111111010111000010000
11111111010111011100000
11111111010101110010000
11111111010100001010000
11111111010100001010000
11111111010111110110000
11111111011000101010000
11111111011001000100000
11111111011001000100000
11111111011001000100000
11111111011001000100000
11111111011011001000000
11111111011010010100000
11111111011100010110000
11111111011100010110000
11111111011011100010000
11111111011010101110000
11111111011011111100000
11111111011110011010000
11111111011111101000000
11111111100000000010000
11111111011111001110000
11111111100000011100000
11111111100000000010000
11111111100001010000000
11111111100010000110000
11111111100010111010000
11111111100010111010000
11111111100010111010000
11111111100011101110000
11111111100101011000000
11111111100101110010000
11111111100101011000000
11111111100100001000000
11111111100101011000000
11111111100110100110000
11111111100111110100000
11111111101000001110000
11111111100111110100000
11111111100111011010000
11111111100111011010000
11111111101000101000000
11111111101010010010000
11111111101010101100000
11111111101010101100000
11111111101011000110000
11111111101001111000000
11111111101011100000000
11111111101011111010000
11111111101101001010000
11111111101100010100000
11111111101100010100000
11111111101011000110000
11111111101100101110000
11111111101100101110000
11111111101111001100000
11111111101110110010000
11111111101101100100000
11111111101100101110000
11111111101101111110000
11111111101111001100000
11111111110000011010000
11111111110000000000000
11111111101111001100000
11111111101111001100000
11111111101111001100000
11111111101111100110000
11111111110001010000000
11111111110001010000000
11111111110000000000000
11111111110000011010000
11111111110000110110000
11111111110010000100000
11111111110010111000000
11111111110010000100000
11111111110000110110000
11111111110001101010000
11111111110010011110000
11111111110011101100000
11111111110100100000000
11111111110011101100000
11111111110010111000000
11111111110010011110000
11111111110011010010000
11111111110011010010000
11111111110100000110000
11111111110100100000000
11111111110011101100000
11111111110010111000000
11111111110010111000000
11111111110010111000000
11111111110010111000000
11111111110100000110000
11111111110010011110000
11111111110010111000000
11111111110100100000000
11111111110101110000000
11111111110110001010000
11111111110101010110000
11111111110100000110000
11111111110011101100000
11111111110100100000000
11111111110101010110000
11111111110110100100000
11111111110101010110000
11111111110100000110000
11111111110011101100000
11111111110101010110000
11111111110101110000000
11111111110111110010000
11111111110110100100000
11111111110101010110000
11111111110101010110000
11111111110100100000000
11111111110110001010000
11111111110111110010000
11111111110111110010000
11111111110110001010000
11111111110101110000000
11111111110110111110000
11111111111000001100000
11111111110111110010000
11111111110111011000000
11111111110110111110000
11111111110110111110000
11111111110110100100000
11111111110111011000000
11111111111000001100000
11111111110111110010000
11111111110110100100000
11111111110110100100000
11111111110110001010000
11111111111000101000000
11111111110111011000000
11111111110110111110000
11111111110111011000000
11111111110110111110000
11111111110111110010000
11111111111000101000000
11111111111001011100000
11111111111001000010000
11111111110111110010000
11111111110111110010000
11111111111000001100000
11111111111001110110000
11111111111001000010000
11111111111000101000000
11111111111000001100000
11111111110111110010000
11111111111001000010000
11111111111010010000000
11111111111001110110000
11111111111001011100000
11111111111000101000000
11111111110111110010000
11111111111000101000000
11111111111001110110000
11111111111000001100000
11111111110110111110000
11111111110110100100000
11111111110111110010000
11111111110111011000000
11111111111000101000000
11111111111001000010000
11111111111001000010000
11111111110111110010000
11111111110111011000000
11111111110111011000000
11111111111001011100000
11111111111001000010000
11111111111001000010000
11111111111000001100000
11111111110111110010000
11111111111000001100000
11111111111000101000000
11111111111001011100000
11111111110111011000000
11111111111000001100000
11111111111000001100000
11111111111001000010000
11111111111010010000000
11111111111011000100000
11111111111001110110000
11111111111001011100000
11111111111000101000000
11111111111001011100000
11111111111010101010000
11111111111010101010000
11111111111011011110000
11111111111010010000000
11111111111001011100000
11111111111011000100000
11111111111100101110000
11111111111110010110000
11111111111110010110000
11111111111101100010000
11111111111101001000000
11111111111101100010000
11111111111111100100000
00000000000010110110000
00000000000010000010000
00000000000010000010000
00000000000010110110000
00000000000100100000000
00000000000110001000000
00000000000110111100000
00000000000110100010000
00000000000101010100000
00000000000011010000000
00000000000001101000000
00000000000010000010000
00000000000001001110000
11111111111111100100000
11111111111110010110000
11111111111111001010000
11111111111111001010000
11111111111101111100000
11111111111011011110000
11111111111010010000000
11111111110111110010000
11111111110110100100000
11111111110100111100000
11111111110101110000000
11111111110110111110000
11111111110110001010000
11111111110110001010000
11111111110110001010000
11111111110110111110000
11111111110111110010000
11111111111001000010000
11111111110111011000000
11111111110111011000000
11111111110110111110000
11111111111000101000000
11111111111001110110000
11111111111010010000000
11111111111010010000000
11111111111010101010000
00000000000000000000000
00000000001011111000000
00000000011011011100000
00000000101000100010000
00000000110101101010000
00000000111111111000000
00000001000111010000000
00000001000110110110000
00000000111000111010000
00000000100000010110000
00000000001011000010000
11111111111101100010000
11111111110110111110000
11111111110110111110000
11111111111001000010000
11111111111000101000000
11111111111000001100000
11111111110110100100000
11111111110100100000000
11111111110101110000000
11111111110110100100000
11111111110110100100000
11111111110101110000000
11111111110110001010000
11111111110101110000000
11111111110111011000000
11111111110110111110000
11111111110110111110000
11111111110110001010000
11111111110100111100000
11111111110100000110000
11111111110100100000000
11111111110100100000000
11111111110100000110000
11111111110100100000000
11111111110100100000000
11111111110100100000000
11111111110100100000000
11111111110101110000000
11111111110101010110000
11111111110100100000000
11111111110100100000000
11111111110100000110000
11111111110100111100000
11111111110101110000000
11111111110101110000000
11111111110100100000000
11111111110100100000000
11111111110100100000000
11111111110101010110000
11111111110110111110000
11111111110110111110000
11111111110100111100000
11111111110100000110000
11111111110010111000000
11111111110100000110000
11111111110101010110000
11111111110101010110000
11111111110011010010000
11111111110010111000000
11111111110010111000000
11111111110010111000000
11111111110100000110000
11111111110100111100000
11111111110100111100000
11111111110100000110000
11111111110010011110000
11111111110100000110000
11111111110011101100000
11111111110010111000000
11111111110011010010000
11111111110010000100000
11111111110001101010000
11111111110010000100000
11111111110010011110000
11111111110010111000000
11111111110010111000000
11111111110001010000000
11111111110001101010000
11111111110010111000000
11111111110011010010000
11111111110011010010000
11111111110011010010000
11111111110010000100000
11111111110001101010000
11111111110001010000000
11111111110011010010000
11111111110001101010000
11111111110001101010000
11111111110001101010000
11111111110001101010000
11111111110010000100000
11111111110011010010000
11111111110011101100000
11111111110100000110000
11111111110010000100000
11111111110100111100000
11111111110110111110000
11111111110111110010000
11111111111000101000000
11111111110110100100000
11111111110101110000000
11111111110100111100000
11111111110011101100000
11111111110010011110000
11111111110010000100000
11111111110000110110000
11111111110000011010000
11111111110000011010000
11111111110001010000000
11111111110011010010000
11111111110100100000000
11111111110011010010000
11111111110000000000000
11111111101101100100000
11111111101101001010000
11111111101101100100000
11111111101101001010000
11111111101011111010000
11111111101011100000000
11111111101010010010000
11111111101010101100000
11111111101100010100000
11111111101101001010000
11111111101100101110000
11111111101011111010000
11111111101011111010000
11111111101100010100000
11111111101100101110000
11111111101110011000000
11111111101101111110000
11111111101101001010000
11111111101101100100000
11111111101110110010000
11111111110000000000000
11111111110000011010000
11111111110000011010000
11111111101111001100000
11111111101111001100000
11111111110000011010000
11111111110001010000000
11111111110001101010000
11111111110001010000000
11111111101111001100000
11111111110000110110000
11111111110010000100000
11111111110010000100000
11111111110010111000000
11111111110010111000000
11111111110010111000000
11111111110010011110000
11111111110011010010000
11111111110100111100000
11111111110011101100000
11111111110000110110000
11111111101100010100000
11111111101001111000000
11111111101011100000000
11111111110100111100000
00000000000000000000000
00000000001011011110000
00000000011001110010000
00000000101110010010000
00000001000001001000000
00000001001001010100000
00000001000001100010000
00000000101010001100000
00000000010001001100000
00000000000001101000000
11111111111101111100000
11111111111110010110000
11111111111111001010000
11111111111100010100000
11111111111000101000000
11111111110110001010000
11111111110110100100000
11111111110101110000000
11111111110110001010000
11111111110100111100000
11111111110010111000000
11111111110001101010000
11111111110010111000000
11111111110010111000000
11111111110011010010000
11111111110011010010000
11111111110010011110000
11111111110010011110000
11111111110010000100000
11111111110011010010000
11111111110010111000000
11111111110001010000000
11111111110000110110000
11111111110001010000000
11111111110001101010000
11111111110000110110000
11111111110010011110000
11111111110001101010000
11111111110000110110000
11111111110000000000000
11111111110001010000000
11111111110010111000000
11111111110010000100000
11111111110000011010000
11111111101111001100000
11111111101111100110000
11111111110000000000000
11111111110000011010000
11111111101111100110000
11111111101111001100000
11111111101110011000000
11111111101110110010000
11111111101110110010000
11111111101111001100000
11111111110000011010000
11111111110000000000000
11111111101110011000000
11111111101101111110000
11111111101101111110000
11111111101111100110000
11111111101111100110000
11111111101101111110000
11111111101101100100000
11111111101100101110000
11111111101110011000000
11111111101110110010000
11111111101110110010000
11111111101110011000000
11111111101100010100000
11111111101100010100000
11111111101101001010000
11111111101110011000000
11111111110000000000000
11111111101110011000000
11111111101100101110000
11111111101010101100000
11111111101011000110000
11111111101011111010000
11111111101011000110000
11111111101010101100000
11111111101001000010000
11111111100111110100000
11111111100111110100000
11111111101001111000000
11111111101001011110000
11111111101000101000000
11111111100111011010000
11111111100111011010000
11111111100111011010000
11111111101001000010000
11111111101011000110000
11111111101011000110000
11111111101001011110000
11111111101010101100000
11111111101010101100000
11111111101100010100000
11111111101100010100000
11111111101101001010000
11111111101101001010000
11111111101101111110000
11111111101110011000000
11111111110000000000000
11111111110010000100000
11111111110001010000000
11111111110000000000000
11111111101110011000000
11111111101111100110000
11111111110000011010000
11111111110001101010000
11111111110000110110000
11111111110000110110000
11111111110001101010000
11111111110010000100000
11111111110011101100000
11111111110100100000000
11111111110010011110000
11111111110000011010000
11111111110010111000000
11111111110010000100000
11111111110010011110000
11111111110010011110000
11111111110010011110000
11111111110010000100000
11111111110010011110000
11111111110011101100000
11111111110101110000000
11111111110110100100000
11111111110100100000000
11111111110010000100000
11111111110001101010000
11111111110010000100000
11111111110100100000000
11111111110101010110000
11111111110100000110000
11111111110100000110000
11111111110010111000000
11111111110110100100000
11111111110110111110000
11111111110101110000000
11111111110100100000000
11111111110100111100000
11111111110100100000000
11111111110100111100000
11111111110110111110000
11111111110110111110000
11111111110110100100000
11111111110110001010000
11111111110100111100000
11111111110101010110000
11111111110101110000000
11111111110110001010000
11111111110101110000000
11111111110100000110000
11111111110011101100000
11111111110011101100000
11111111110100111100000
11111111110101010110000
11111111110101010110000
11111111110011101100000
11111111110100000110000
11111111110011010010000
11111111110011101100000
11111111110100111100000
11111111110100100000000
11111111110011010010000
11111111110010011110000
11111111110011010010000
11111111110011101100000
11111111110100000110000
11111111110010111000000
11111111110010111000000
11111111110011010010000
11111111110010111000000
11111111110010111000000
11111111110100000110000
11111111110011010010000
11111111110010111000000
11111111110010111000000
11111111110010111000000
11111111110100100000000
11111111110100000110000
11111111110011010010000
11111111110010000100000
11111111110001101010000
11111111110010111000000
11111111110011010010000
11111111110100000110000
11111111110010111000000
11111111110010111000000
11111111110010111000000
11111111110010000100000
11111111110100000110000
11111111110100111100000
11111111110101110000000
11111111110011010010000
11111111110010011110000
11111111110011101100000
11111111110100000110000
11111111110101010110000
11111111110100100000000
11111111110011101100000
11111111110010111000000
11111111110100100000000
11111111110100111100000
11111111110101110000000
11111111110100100000000
11111111110011010010000
11111111110010111000000
11111111110011010010000
11111111110101010110000
11111111110101110000000
11111111110100111100000
11111111110100000110000
11111111110010111000000
11111111110011101100000
11111111110100111100000
11111111110101010110000
11111111110011101100000
11111111110010111000000
11111111110100000110000
11111111110101010110000
11111111110110100100000
11111111110110100100000
11111111110100111100000
11111111110011101100000
11111111110011010010000
11111111110011101100000
11111111110101010110000
11111111110110001010000
11111111110100100000000
11111111110100100000000
11111111110010011110000
11111111110100100000000
11111111110101110000000
11111111110110001010000
11111111110101110000000
11111111110100100000000
11111111110011010010000
11111111110011010010000
11111111110100100000000
11111111110100000110000
11111111110100100000000
11111111110011101100000
11111111110100100000000
11111111110100111100000
11111111110101110000000
11111111110100111100000
11111111110100111100000
11111111110100100000000
11111111110100000110000
11111111110100100000000
11111111110101110000000
11111111110110100100000
11111111110101110000000
11111111110101010110000
11111111110100000110000
11111111110100100000000
11111111110110001010000
11111111110101110000000
11111111110101110000000
11111111110100111100000
11111111110110001010000
11111111110101110000000
11111111110110111110000
11111111110110111110000
11111111110110100100000
11111111110100111100000
11111111110110111110000
11111111110111011000000
11111111110111011000000
11111111110111110010000
11111111110110111110000
11111111110110001010000
11111111110110001010000
11111111110110111110000
11111111111000001100000
11111111111001000010000
11111111111000101000000
11111111110100111100000
11111111110100100000000
11111111110101110000000
11111111111000101000000
11111111111001011100000
11111111110111110010000
11111111110111110010000
11111111110110001010000
11111111110111110010000
11111111111001011100000
11111111111000101000000
11111111110111110010000
11111111110110111110000
11111111110110111110000
11111111111000001100000
11111111111001011100000
11111111111000101000000
11111111110110111110000
11111111110111011000000
11111111110110100100000
11111111110111011000000
11111111111001011100000
11111111111001110110000
11111111111001000010000
11111111110111110010000
11111111111000001100000
11111111111000001100000
11111111111001011100000
11111111111010010000000
11111111111001110110000
11111111111010101010000
11111111111001000010000
11111111111010010000000
11111111111100010100000
11111111111011000100000
11111111111001110110000
11111111110111011000000
11111111110101110000000
11111111111001011100000
00000000000011101010000
00000000010010110100000
00000000100101101010000
00000000110111101100000
00000001000010110000000
00000001000111010000000
00000001000001111100000
00000000101111111010000
00000000011000001010000
00000000000111010110000
11111111111101100010000
11111111111101100010000
11111111111110010110000
11111111111111100100000
00000000000000000000000
11111111111111001010000
11111111111100101110000
11111111111010101010000
11111111111100101110000
11111111111101100010000
11111111111100101110000
11111111111011111000000
11111111111011011110000
11111111111101001000000
00000000000000011010000
00000000000001101000000
00000000000000011010000
11111111111110110000000
11111111111100101110000
11111111111011111000000
11111111111011111000000
11111111111011111000000
11111111111010101010000
11111111111010101010000
11111111111011011110000
11111111111011000100000
11111111111011011110000
11111111111001110110000
11111111110111110010000
11111111110110001010000
11111111110110111110000
11111111110111011000000
11111111110111110010000
11111111111000001100000
11111111110111011000000
11111111110110111110000
11111111110110100100000
11111111111001000010000
11111111111001110110000
11111111111011000100000
11111111111010010000000
11111111111000101000000
11111111111001011100000
11111111111001000010000
11111111111010010000000
11111111111010101010000
11111111111011000100000
11111111111001011100000
11111111111001110110000
11111111111011000100000
11111111111101100010000
11111111111100101110000
11111111111100010100000
11111111111011000100000
11111111111010101010000
11111111111010101010000
11111111111011111000000
11111111111101001000000
11111111111100101110000
11111111111010101010000
11111111111001110110000
11111111111010101010000
11111111111100101110000
11111111111011111000000
11111111111101100010000
11111111111100101110000
11111111111011000100000
11111111111001000010000
11111111111010010000000
11111111111001110110000
11111111111001000010000
11111111111000001100000
11111111110111110010000
11111111111000101000000
11111111110111110010000
11111111111000101000000
11111111110110111110000
11111111110101010110000
11111111110011010010000
11111111110100000110000
11111111110100111100000
11111111110010011110000
11111111110010111000000
11111111101111100110000
11111111101111100110000
11111111101111100110000
11111111101111100110000
11111111110001101010000
11111111110000011010000
11111111101111001100000
11111111101110011000000
11111111101110110010000
11111111101111001100000
11111111101110011000000
11111111101101100100000
11111111101100101110000
11111111101011100000000
11111111101011111010000
11111111101011100000000
11111111101011100000000
11111111101011000110000
11111111101001111000000
11111111101011000110000
11111111101011111010000
11111111101101100100000
11111111101101100100000
11111111101101001010000
11111111101100010100000
11111111101011100000000
11111111101100101110000
11111111101100101110000
11111111101101100100000
11111111101011111010000
11111111101011111010000
11111111101100010100000
11111111101100010100000
11111111101110110010000
11111111101101100100000
11111111101101001010000
11111111101101111110000
11111111101100101110000
11111111101101100100000
11111111101111100110000
11111111101111100110000
11111111101111100110000
11111111101110110010000
11111111101110011000000
11111111101111100110000
11111111110000000000000
11111111110010000100000
11111111110001101010000
11111111110011010010000
11111111110100111100000
11111111110101110000000
11111111111000001100000
11111111111000001100000
11111111111000101000000
11111111111000101000000
11111111110101110000000
11111111110100111100000
11111111110100100000000
11111111110010000100000
11111111110000110110000
11111111101111100110000
11111111110000000000000
11111111110010000100000
11111111110011010010000
11111111110100000110000
11111111110011101100000
11111111110011010010000
11111111110001010000000
11111111110000110110000
11111111110000000000000
11111111101111100110000
11111111101101111110000
11111111101100101110000
11111111101011000110000
11111111101010010010000
11111111101011100000000
11111111101011000110000
11111111101011100000000
11111111101001011110000
11111111101000101000000
11111111101001111000000
11111111101010101100000
11111111101010101100000
11111111101010010010000
11111111101001000010000
11111111101001011110000
11111111101001111000000
11111111101011111010000
11111111101101001010000
11111111101100010100000
11111111101011000110000
11111111101011000110000
11111111101011000110000
11111111101100101110000
11111111101100010100000
11111111101100010100000
11111111101011000110000
11111111101001111000000
11111111101011000110000
11111111101100101110000
11111111101100101110000
11111111101011000110000
11111111100111011010000
11111111100101110010000
11111111100100001000000
11111111100110100110000
11111111101011111010000
11111111110101010110000
00000000000001101000000
00000000010000110010000
00000000011101011110000
00000000100101010000000
00000000100000010110000
00000000010001001100000
11111111111100101110000
11111111101101001010000
11111111100101011000000
11111111100010000110000
11111111100011010100000
11111111100100001000000
11111111100110001100000
11111111101000001110000
11111111101010010010000
11111111101011000110000
11111111101010010010000
11111111101001111000000
11111111101001011110000
11111111101000001110000
11111111100111110100000
11111111101000101000000
11111111101010010010000
11111111101001111000000
11111111101000101000000
11111111100111110100000
11111111101000101000000
11111111101010101100000
11111111101011111010000
11111111101011100000000
11111111101011000110000
11111111101001111000000
11111111101010101100000
11111111101010101100000
11111111101010010010000
11111111101011100000000
11111111101011111010000
11111111101100101110000
11111111101101100100000
11111111101110011000000
11111111101111100110000
11111111110000000000000
11111111101111001100000
11111111110000110110000
11111111110001010000000
11111111110001010000000
11111111110001010000000
11111111101110110010000
11111111101100010100000
11111111101101001010000
11111111101110011000000
11111111101101100100000
11111111101101100100000
11111111101011111010000
11111111101010010010000
11111111101001000010000
11111111101001000010000
11111111101001011110000
11111111101001011110000
11111111101000001110000
11111111100111000000000
11111111100111000000000
11111111100110100110000
11111111100111011010000
11111111100111110100000
11111111100111110100000
11111111100101110010000
11111111100100100010000
11111111100101011000000
11111111100110100110000
11111111100100111100000
11111111100101011000000
11111111100001101100000
11111111100000110110000
11111111100010000110000
11111111100010111010000
11111111100011010100000
11111111100011101110000
11111111100010100000000
11111111100001010000000
11111111100010111010000
11111111100010000110000
11111111100010100000000
11111111100000110110000
11111111011111001110000
11111111011110000000000
11111111011111101000000
11111111100000011100000
11111111011111101000000
11111111011111001110000
11111111011101100100000
11111111011101001010000
11111111011110011010000
11111111011110000000000
11111111011100110000000
11111111011011111100000
11111111011011100010000
11111111011011001000000
11111111011010101110000
11111111011011001000000
11111111011010101110000
11111111011010101110000
11111111011001011110000
11111111011010010100000
11111111011010010100000
11111111011011111100000
11111111011011100010000
11111111011010101110000
11111111011011001000000
11111111011010101110000
11111111011011111100000
11111111011100110000000
11111111011110000000000
11111111011100010110000
11111111011100010110000
11111111011101001010000
11111111011110000000000
11111111011111101000000
11111111011111001110000
11111111011110000000000
11111111011101100100000
11111111011110000000000
11111111011110110100000
11111111100000011100000
11111111100000110110000
11111111100000000010000
11111111011110000000000
11111111011110011010000
11111111100001010000000
11111111100010111010000
11111111100011010100000
11111111100100001000000
11111111100011010100000
11111111100010000110000
11111111100010000110000
11111111100011010100000
11111111100101110010000
11111111100100111100000
11111111100011010100000
11111111100000110110000
11111111100000000010000
11111111100000011100000
11111111100100111100000
11111111101101001010000
11111111111001011100000
00000000000101101110000
00000000010000011000000
00000000011100101010000
00000000101010001100000
00000000111001110000000
00000001000011001010000
00000001000100110100000
00000000111101011100000
00000000101101011100000
00000000010111010110000
00000000000101010100000
11111111111010101010000
11111111110110111110000
11111111110101110000000
11111111110001101010000
11111111101111100110000
11111111101011100000000
11111111100111110100000
11111111100110001100000
11111111100110100110000
11111111101000001110000
11111111101000101000000
11111111100111000000000
11111111100101011000000
11111111100100111100000
11111111100101110010000
11111111100110001100000
11111111100110100110000
11111111100110001100000
11111111100100100010000
11111111100101011000000
11111111100110001100000
11111111100111011010000
11111111100111011010000
11111111100111011010000
11111111100110001100000
11111111100110100110000
11111111100111011010000
11111111101000001110000
11111111101000001110000
11111111100111011010000
11111111100111000000000
11111111100101110010000
11111111100111110100000
11111111101000101000000
11111111101000001110000
11111111100111011010000
11111111100101110010000
11111111100101110010000
11111111100111000000000
11111111101001000010000
11111111101000101000000
11111111100110100110000
11111111100111011010000
11111111100101110010000
11111111100111011010000
11111111101000001110000
11111111101000001110000
11111111100111110100000
11111111100111000000000
11111111100111000000000
11111111100111011010000
11111111100111011010000
11111111101000001110000
11111111100111011010000
11111111100110100110000
11111111100101110010000
11111111100111000000000
11111111101000001110000
11111111100111110100000
11111111100111000000000
11111111100101011000000
11111111100101011000000
11111111100101110010000
11111111100111000000000
11111111100111000000000
11111111100101110010000
11111111100100100010000
11111111100010100000000
11111111100010111010000
11111111100100100010000
11111111100100111100000
11111111100100001000000
11111111100010111010000
11111111100010000110000
11111111100010100000000
11111111100001101100000
11111111100000110110000
11111111011110110100000
11111111011111001110000
11111111011111001110000
11111111011111001110000
11111111100000011100000
11111111100001010000000
11111111100000000010000
11111111100000000010000
11111111011110110100000
11111111100000000010000
11111111100010100000000
11111111100010000110000
11111111100010100000000
11111111100001010000000
11111111100001101100000
11111111100011101110000
11111111100110001100000
11111111100110001100000
11111111100111000000000
11111111100101110010000
11111111100101011000000
11111111100111000000000
11111111100111110100000
11111111101000101000000
11111111101001111000000
11111111101000101000000
11111111101000001110000
11111111101010010010000
11111111101100101110000
11111111101101111110000
11111111101100101110000
11111111101101100100000
11111111101011100000000
11111111101101001010000
11111111101101001010000
11111111101110011000000
11111111101101100100000
11111111101101111110000
11111111101101100100000
11111111101110011000000
11111111101111100110000
11111111110000110110000
11111111110000000000000
11111111101111100110000
11111111101111100110000
11111111110000110110000
11111111110010000100000
11111111110010000100000
11111111110001101010000
11111111110001010000000
11111111110000011010000
11111111110001010000000
11111111110010011110000
11111111110011010010000
11111111110010111000000
11111111110010011110000
11111111110010111000000
11111111110011101100000
11111111110100111100000
11111111110100000110000
11111111110011101100000
11111111110010011110000
11111111110010011110000
11111111110011101100000
11111111110100111100000
11111111110100100000000
11111111110100100000000
11111111110011101100000
11111111110011101100000
11111111110100100000000
11111111110101010110000
11111111110100111100000
11111111110100100000000
11111111110011101100000
11111111110011010010000
11111111110100111100000
11111111110101110000000
11111111110101110000000
11111111110100100000000
11111111110011101100000
11111111110011101100000
11111111110101010110000
11111111110110111110000
11111111110110100100000
11111111110100111100000
11111111110100000110000
11111111110100000110000
11111111110101110000000
11111111110110111110000
11111111110110111110000
11111111110101110000000
11111111110100111100000
11111111110101110000000
11111111110110001010000
11111111110110100100000
11111111110101110000000
11111111110101010110000
11111111110101010110000
11111111110101010110000
11111111110110001010000
11111111110101110000000
11111111110110100100000
11111111110110001010000
11111111110100100000000
11111111110100000110000
11111111110110001010000
11111111110110100100000
11111111110110100100000
11111111110111011000000
11111111110110001010000
11111111110110001010000
11111111110101110000000
11111111110111110010000
11111111111000001100000
11111111110111110010000
11111111110110100100000
11111111110101010110000
11111111110110100100000
11111111110111110010000
11111111110111110010000
11111111110110100100000
11111111110101110000000
11111111110101110000000
11111111110110100100000
11111111110111011000000
11111111111000001100000
11111111110101110000000
11111111110110100100000
11111111110110001010000
11111111110110100100000
11111111110111011000000
11111111110111011000000
11111111110111110010000
11111111110110100100000
11111111110110001010000
11111111110111011000000
11111111110110100100000
11111111110111110010000
11111111110110100100000
11111111110110100100000
11111111110110111110000
11111111111000101000000
11111111111001000010000
11111111111001000010000
11111111110110001010000
11111111110100111100000
11111111110101110000000
11111111110111011000000
11111111111001000010000
11111111111000001100000
11111111110111011000000
11111111110110111110000
11111111110110001010000
11111111110110100100000
11111111111000101000000
11111111111001011100000
11111111111000101000000
11111111110110111110000
11111111110110100100000
11111111110111110010000
11111111111001000010000
11111111111000101000000
11111111111000101000000
11111111110110100100000
11111111110110100100000
11111111110111011000000
11111111111000001100000
11111111111000001100000
11111111111000001100000
11111111110111110010000
11111111110111011000000
11111111110111011000000
11111111111000001100000
11111111111000001100000
11111111111000001100000
11111111110110100100000
11111111110101110000000
11111111111000001100000
11111111111001011100000
11111111111001000010000
11111111111000001100000
11111111110110111110000
11111111110110111110000
11111111110111110010000
11111111111001000010000
11111111111000101000000
11111111111001011100000
11111111110111011000000
11111111110101010110000
11111111111000101000000
11111111111001110110000
11111111111001011100000
11111111111001000010000
11111111110111110010000
11111111111000001100000
11111111110111110010000
11111111111000101000000
11111111111001011100000
11111111111001110110000
11111111110111110010000
11111111111000001100000
11111111111000001100000
11111111111001000010000
11111111111001011100000
11111111111001110110000
11111111111000001100000
11111111110111110010000
11111111111000101000000
11111111111001011100000
11111111111001011100000
11111111111000101000000
11111111111000101000000
11111111111001011100000
11111111111010010000000
11111111111011011110000
11111111111011011110000
11111111111011000100000
11111111111001110110000
11111111111001011100000
11111111111011011110000
11111111111011111000000
11111111111100101110000
11111111111011111000000
11111111111011011110000
11111111111011111000000
11111111111101100010000
00000000000000000000000
00000000000001001110000
00000000000001101000000
00000000000010000010000
00000000000011101010000
00000000000101101110000
00000000000111010110000
00000000001000001100000
00000000000110111100000
00000000000101101110000
00000000000100100000000
00000000000100111010000
00000000000101101110000
00000000000110111100000
00000000000011101010000
00000000000010000010000
00000000000001001110000
00000000000010011100000
00000000000001001110000
11111111111111100100000
11111111111101111100000
11111111111011011110000
11111111111001110110000
11111111111000001100000
11111111111001110110000
11111111111001011100000
11111111111000101000000
11111111110111110010000
11111111110110001010000
11111111110110111110000
11111111111000101000000
11111111111001011100000
11111111111000001100000
11111111111000001100000
11111111111000101000000
11111111111001011100000
11111111111010010000000
11111111111011111000000
11111111111010101010000
11111111111001110110000
11111111111100101110000
00000000000001101000000
00000000001101100000000
00000000011010001100000
00000000100101010000000
00000000101110101100000
00000000110110111000000
00000000111101000000000
00000000111101000000000
00000000110100110100000
00000000100100011100000
00000000001111111110000
00000000000000000000000
11111111111010101010000
11111111111000001100000
11111111111001000010000
11111111111000101000000
11111111111001000010000
11111111111000001100000
11111111110111110010000
11111111111001011100000
11111111111000101000000
11111111110110111110000
11111111110101110000000
11111111110110001010000
11111111110111011000000
11111111111001011100000
11111111111001000010000
11111111110111110010000
11111111110110100100000
11111111110110111110000
11111111111000101000000
11111111111001110110000
11111111111001110110000
11111111111000101000000
11111111110110001010000
11111111110111110010000
11111111111001011100000
11111111111010010000000
11111111111010010000000
11111111111010010000000
11111111111001000010000
11111111111000001100000
11111111111000101000000
11111111111001011100000
11111111111001011100000
11111111111010010000000
11111111111001011100000
11111111111001110110000
11111111111010010000000
11111111111010101010000
11111111111011111000000
11111111111011011110000
11111111111001110110000
11111111111010101010000
11111111111011011110000
11111111111011111000000
11111111111011111000000
11111111111011111000000
11111111111010101010000
11111111111010101010000
11111111111010010000000
11111111111100010100000
11111111111100010100000
11111111111011011110000
11111111111001110110000
11111111111010010000000
11111111111011011110000
11111111111101001000000
11111111111101001000000
11111111111100010100000
11111111111011011110000
11111111111010010000000
11111111111010101010000
11111111111011011110000
11111111111101100010000
11111111111100101110000
11111111111011000100000
11111111111011000100000
11111111111100101110000
11111111111101100010000
11111111111101001000000
11111111111100101110000
11111111111011111000000
11111111111011000100000
11111111111100101110000
11111111111101111100000
11111111111100101110000
11111111111011111000000
11111111111011000100000
11111111111011011110000
11111111111101001000000
11111111111101111100000
11111111111111001010000
11111111111111001010000
11111111111101001000000
11111111111101100010000
11111111111101100010000
11111111111111100100000
00000000000001001110000
00000000000000000000000
11111111111111100100000
00000000000000011010000
00000000000010000010000
00000000000100000110000
00000000000011101010000
00000000000001101000000
11111111111111001010000
11111111111101001000000
11111111111100101110000
11111111111101001000000
11111111111101111100000
11111111111100101110000
11111111111100010100000
11111111111011011110000
11111111111100010100000
11111111111100010100000
11111111111100101110000
11111111111010010000000
11111111110111110010000
11111111110100100000000
11111111110100000110000
11111111110100111100000
11111111110010111000000
11111111110010011110000
11111111110000000000000
11111111101110110010000
11111111101111001100000
11111111101110110010000
11111111101110011000000
11111111101111001100000
11111111101110110010000
11111111101110110010000
11111111101111001100000
11111111101111100110000
11111111110001010000000
11111111101111001100000
11111111101111100110000
11111111110000000000000
11111111110001010000000
11111111110010111000000
11111111110010011110000
11111111110010000100000
11111111110000110110000
11111111110001010000000
11111111110010000100000
11111111110011010010000
11111111110100000110000
11111111110011101100000
11111111110010000100000
11111111110010000100000
11111111110011010010000
11111111110011101100000
11111111110011101100000
11111111110011101100000
11111111110010111000000
11111111110011101100000
11111111110100000110000
11111111110100100000000
11111111110101110000000
11111111110100100000000
11111111110011101100000
11111111110100111100000
11111111110100111100000
11111111110101010110000
11111111110011010010000
11111111110000011010000
11111111101101100100000
11111111101010010010000
11111111100111011010000
11111111101010101100000
11111111101111100110000
11111111110110111110000
11111111111111100100000
00000000001101000110000
00000000011110010010000
00000000101101111000000
00000000111000000110000
00000000111000111010000
00000000101110101100000
00000000011111111100000
00000000010001001100000
00000000001001000000000
00000000000100100000000
00000000000100000110000
00000000000010110110000
00000000000000000000000
11111111111111100100000
00000000000001001110000
11111111111111001010000
11111111111101111100000
11111111111100010100000
11111111111100010100000
11111111111101100010000
11111111111110110000000
11111111111111001010000
11111111111110010110000
11111111111101001000000
11111111111100010100000
11111111111101001000000
11111111111100101110000
11111111111100101110000
11111111111100101110000
11111111111100101110000
11111111111100010100000
11111111111010101010000
11111111111101100010000
11111111111011000100000
11111111111001000010000
11111111110110001010000
11111111110101110000000
11111111110110100100000
11111111111000001100000
11111111110111011000000
11111111110110001010000
11111111110101110000000
11111111110101010110000
11111111110111011000000
11111111111000001100000
11111111110111110010000
11111111110100111100000
11111111110100100000000
11111111110010011110000
11111111110011101100000
11111111110100100000000
11111111110101010110000
11111111110100100000000
11111111110010011110000
11111111110010000100000
11111111110010000100000
11111111110011010010000
11111111110010011110000
11111111110000110110000
11111111101111001100000
11111111101110011000000
11111111101111001100000
11111111110000110110000
11111111110001010000000
11111111110000110110000
11111111101111100110000
11111111101111100110000
11111111110001010000000
11111111110010000100000
11111111110010011110000
11111111110000110110000
11111111101111100110000
11111111101111100110000
11111111101111100110000
11111111110000110110000
11111111110001010000000
11111111110000000000000
11111111101110110010000
11111111101101111110000
11111111101110110010000
11111111101111100110000
11111111101110011000000
11111111101110011000000
11111111101101100100000
11111111101101001010000
11111111101100101110000
11111111101101001010000
11111111101101001010000
11111111101011111010000
11111111101011000110000
11111111101010101100000
11111111101011100000000
11111111101100101110000
11111111101100010100000
11111111101011111010000
11111111101001111000000
11111111101011000110000
11111111101100010100000
11111111101110011000000
11111111101111001100000
11111111101101111110000
11111111101100010100000
11111111101100101110000
11111111101101100100000
11111111101110110010000
11111111101110011000000
11111111101110011000000
11111111101101100100000
11111111101101111110000
11111111110000000000000
11111111110000011010000
11111111110000000000000
11111111101111100110000
11111111101101100100000
11111111101101100100000
11111111101110011000000
11111111101110011000000
11111111101100101110000
11111111101100101110000
11111111101011100000000
11111111101010010010000
11111111101011111010000
11111111101101111110000
11111111101100010100000
11111111101011100000000
11111111101011100000000
11111111101011100000000
11111111101101001010000
11111111101111100110000
11111111101111100110000
11111111101110110010000
11111111101101100100000
11111111101101100100000
11111111101111001100000
11111111110001101010000
11111111110010011110000
11111111110010011110000
11111111110000000000000
11111111101110011000000
11111111101110011000000
11111111101111001100000
11111111110010011110000
11111111111010010000000
00000000000101010100000
00000000010010110100000
00000000100001100100000
00000000101011110100000
00000000101111000110000
00000000100111101110000
00000000010110100000000
00000000000010110110000
11111111110101010110000
11111111110000000000000
11111111110000011010000
11111111110001010000000
11111111110001010000000
11111111110000110110000
11111111110000110110000
11111111110010000100000
11111111110010000100000
11111111110000000000000
11111111101101100100000
11111111101100101110000
11111111101101111110000
11111111101111001100000
11111111101110110010000
11111111101101111110000
11111111101100101110000
11111111101011111010000
11111111101101111110000
11111111101111001100000
11111111101101100100000
11111111101101100100000
11111111101100101110000
11111111101100101110000
11111111101101001010000
11111111101100101110000
11111111101110110010000
11111111101101100100000
11111111101100101110000
11111111101101100100000
11111111101101100100000
11111111101110011000000
11111111101110011000000
11111111101101001010000
11111111101011100000000
11111111101001111000000
11111111101000101000000
11111111101000001110000
11111111100110100110000
11111111100101011000000
11111111100011101110000
11111111100100100010000
11111111100100100010000
11111111100100111100000
11111111100100001000000
11111111100010111010000
11111111100000110110000
11111111100010100000000
11111111100011010100000
11111111100100111100000
11111111100110001100000
11111111101000001110000
11111111101000001110000
11111111101001111000000
11111111101100101110000
11111111110000011010000
11111111110010111000000
11111111110011101100000
11111111110100000110000
11111111110100100000000
11111111110110111110000
11111111110111011000000
11111111110110100100000
11111111110101110000000
11111111110100100000000
11111111110101010110000
11111111110110100100000
11111111110111110010000
11111111111001110110000
11111111111001011100000
11111111110111011000000
11111111110110001010000
11111111110100111100000
11111111110101110000000
11111111110110001010000
11111111110100111100000
11111111110011101100000
11111111110001101010000
11111111110010111000000
11111111110011010010000
11111111110011010010000
11111111110010000100000
11111111101111001100000
11111111101111001100000
11111111101101100100000
11111111101110011000000
11111111101101001010000
11111111101011111010000
11111111101000101000000
11111111101001011110000
11111111101000101000000
11111111101001111000000
11111111101001111000000
11111111101010010010000
11111111101000001110000
11111111100111110100000
11111111101000101000000
11111111101010010010000
11111111101011100000000
11111111101011100000000
11111111101001111000000
11111111101001011110000
11111111101001111000000
11111111101010101100000
11111111101010101100000
11111111101001011110000
11111111101001111000000
11111111101001011110000
11111111101011000110000
11111111101011000110000
11111111101011000110000
11111111101001111000000
11111111101000101000000
11111111101000101000000
11111111101000101000000
11111111101000101000000
11111111101000101000000
11111111100110100110000
11111111100011101110000
11111111100010100000000
11111111100010111010000
11111111100010100000000
11111111011111001110000
11111111011010101110000
11111111010111000010000
11111111010110101000000
11111111011001011110000
11111111100000011100000
11111111101101001010000
11111111111110010110000
00000000001100101100000
00000000010110111100000
00000000010100011110000
00000000001000001100000
11111111110111110010000
11111111101001011110000
11111111100011101110000
11111111100101110010000
11111111101100010100000
11111111110010111000000
11111111110110001010000
11111111110101010110000
11111111110010011110000
11111111110000011010000
11111111110001101010000
11111111110100000110000
11111111110100111100000
11111111110100000110000
11111111110010011110000
11111111110100111100000
11111111110101110000000
11111111110111110010000
11111111110110111110000
11111111110111011000000
11111111110110111110000
11111111110110001010000
11111111110101010110000
11111111110110111110000
11111111110110001010000
11111111110101110000000
11111111110100100000000
11111111110100111100000
11111111110101010110000
11111111110110001010000
11111111110101110000000
11111111110101010110000
11111111110100000110000
11111111110100000110000
11111111110100000110000
11111111110101010110000
11111111110101110000000
11111111110101010110000
11111111110100111100000
11111111110011101100000
11111111110010000100000
11111111110011101100000
11111111110010000100000
11111111110001101010000
11111111110001010000000
11111111110000110110000
11111111110000011010000
11111111110000011010000
11111111110000000000000
11111111101110011000000
11111111101100101110000
11111111101011100000000
11111111101010010010000
11111111101011111010000
11111111101000101000000
11111111101000101000000
11111111100111011010000
11111111100101110010000
11111111100101110010000
11111111100100111100000
11111111100011010100000
11111111100000110110000
11111111011110011010000
11111111011101001010000
11111111011110011010000
11111111011110000000000
11111111011101001010000
11111111011011111100000
11111111011010101110000
11111111011011001000000
11111111011100010110000
11111111011110011010000
11111111011101100100000
11111111011110011010000
11111111100000000010000
11111111100001010000000
11111111100010100000000
11111111100100001000000
11111111100100001000000
11111111100011010100000
11111111100010100000000
11111111100010111010000
11111111100010111010000
11111111100100111100000
11111111100110001100000
11111111100110001100000
11111111100100111100000
11111111100100111100000
11111111100100111100000
11111111100111000000000
11111111100111000000000
11111111100111000000000
11111111100111000000000
11111111100110100110000
11111111101000101000000
11111111101011000110000
11111111101101100100000
11111111101101100100000
11111111101100101110000
11111111101101001010000
11111111101100101110000
11111111101110110010000
11111111110000011010000
11111111110000000000000
11111111101110110010000
11111111110000000000000
11111111110001101010000
11111111110010111000000
11111111110010111000000
11111111110011010010000
11111111110010000100000
11111111110010011110000
11111111110011010010000
11111111110010111000000
11111111110011010010000
11111111110100000110000
11111111110010111000000
11111111110010000100000
11111111110001101010000
11111111101110110010000
11111111101100010100000
11111111101001111000000
11111111101001111000000
11111111101110110010000
11111111111001011100000
00000000000110111100000
00000000011000001010000
00000000100100011100000
00000000101101111000000
00000000110001100010000
00000000101110101100000
00000000011111111100000
00000000001101000110000
11111111111101111100000
11111111110110111110000
11111111110110001010000
11111111111000001100000
11111111111001110110000
11111111111001000010000
11111111110100111100000
11111111110001101010000
11111111110000000000000
11111111110000000000000
11111111101110011000000
11111111101110110010000
11111111101011111010000
11111111101010010010000
11111111100110100110000
11111111101000101000000
11111111101001011110000
11111111101000101000000
11111111100111011010000
11111111100111000000000
11111111100101110010000
11111111100110001100000
11111111100111000000000
11111111101000001110000
11111111101000001110000
11111111100111011010000
11111111101010010010000
11111111101101111110000
11111111110001101010000
11111111110011101100000
11111111110100000110000
11111111110110001010000
11111111110110001010000
11111111110111110010000
11111111111000101000000
11111111111001110110000
11111111111001011100000
11111111111001000010000
11111111111001110110000
11111111111011011110000
11111111111100101110000
11111111111011011110000
11111111111011000100000
11111111111010101010000
11111111111011011110000
11111111111100101110000
11111111111101111100000
11111111111100101110000
11111111111100010100000
11111111111011000100000
11111111111011111000000
11111111111101001000000
11111111111110110000000
11111111111110110000000
11111111111100101110000
11111111111010101010000
11111111111010010000000
11111111111011111000000
11111111111101001000000
11111111111101100010000
11111111111100010100000
11111111111010010000000
11111111111001000010000
11111111111010010000000
11111111111011011110000
11111111111001011100000
11111111111001011100000
11111111110111110010000
11111111110110100100000
11111111110111011000000
11111111110111011000000
11111111110110111110000
11111111110100111100000
11111111110010011110000
11111111110010000100000
11111111110001101010000
11111111110010000100000
11111111110010111000000
11111111110001010000000
11111111110000000000000
11111111101111001100000
11111111110000011010000
11111111110000011010000
11111111101111001100000
11111111101110110010000
11111111101101111110000
11111111101101100100000
11111111101110011000000
11111111101110110010000
11111111110000000000000
11111111101101111110000
11111111101101001010000
11111111101011111010000
11111111101011100000000
11111111101101001010000
11111111101101111110000
11111111101101001010000
11111111101011000110000
11111111101011000110000
11111111101011100000000
11111111101100010100000
11111111101011000110000
11111111101010010010000
11111111101001000010000
11111111100111011010000
11111111101000001110000
11111111100111110100000
11111111100110100110000
11111111100101011000000
11111111100100111100000
11111111100110001100000
11111111100111000000000
11111111101000001110000
11111111100111011010000
11111111100110100110000
11111111100110001100000
11111111101000101000000
11111111101100010100000
11111111101111100110000
11111111110010011110000
11111111110011010010000
11111111110100111100000
11111111110110100100000
11111111111010010000000
11111111111100010100000
11111111111101100010000
11111111111100010100000
11111111111011111000000
11111111111011011110000
11111111111011011110000
11111111111100101110000
11111111111101100010000
11111111111101111100000
11111111111100101110000
11111111111100101110000
11111111111011000100000
11111111111100101110000
11111111111011111000000
11111111111011011110000
11111111111010101010000
11111111111011011110000
11111111111100101110000
11111111111101001000000
11111111111011000100000
11111111111011111000000
11111111111011000100000
11111111111010101010000
11111111111100101110000
11111111111101111100000
11111111111101001000000
11111111111100010100000
11111111111011011110000
11111111111101001000000
11111111111101100010000
11111111111101100010000
11111111111111001010000
11111111111101111100000
11111111111101100010000
11111111111011111000000
11111111111101100010000
11111111111110110000000
11111111111111100100000
11111111111111100100000
11111111111110010110000
11111111111110010110000
11111111111101111100000
00000000000000000000000
11111111111110110000000
11111111111101100010000
11111111111011000100000
11111111111011111000000
00000000000000110100000
00000000001001110100000
00000000010101010010000
00000000100000110000000
00000000101010100110000
00000000110100011010000
00000000111001110000000
00000000111001010110000
00000000101100001110000
00000000010111010110000
00000000000101010100000
11111111111100010100000
11111111110111110010000
11111111111000101000000
11111111111001000010000
11111111111000001100000
11111111110110111110000
11111111110101110000000
11111111110100100000000
11111111110010111000000
11111111110001101010000
11111111101111100110000
11111111101111100110000
11111111101111100110000
11111111110000011010000
11111111110001101010000
11111111110001101010000
11111111110010000100000
11111111110010000100000
11111111110010111000000
11111111110101010110000
11111111111001000010000
11111111111010101010000
11111111111100010100000
11111111111110010110000
00000000000000000000000
00000000000010000010000
00000000000011101010000
00000000000011101010000
00000000000010110110000
00000000000010110110000
00000000000010011100000
00000000000100111010000
00000000000100111010000
00000000000100111010000
00000000000001101000000
00000000000000011010000
00000000000000011010000
00000000000010000010000
00000000000010011100000
00000000000010110110000
00000000000010110110000
00000000000001001110000
00000000000000011010000
00000000000001101000000
00000000000010011100000
00000000000011101010000
00000000000010011100000
00000000000001001110000
00000000000001001110000
00000000000011010000000
00000000000011010000000
00000000000010110110000
00000000000010000010000
00000000000000110100000
00000000000001001110000
00000000000010011100000
00000000000010110110000
00000000000011101010000
00000000000010110110000
00000000000001001110000
00000000000001101000000
00000000000001001110000
00000000000010110110000
00000000000010110110000
00000000000010000010000
00000000000001001110000
00000000000000011010000
00000000000010000010000
00000000000010011100000
00000000000010110110000
00000000000000110100000
11111111111111100100000
11111111111111001010000
11111111111101111100000
11111111111110110000000
11111111111110110000000
11111111111011111000000
11111111111010010000000
11111111111000001100000
11111111111001110110000
11111111111010010000000
11111111111001000010000
11111111110110111110000
11111111110101010110000
11111111110011101100000
11111111110010011110000
11111111110011101100000
11111111110000110110000
11111111101110011000000
11111111101100010100000
11111111101011111010000
11111111101011000110000
11111111101010101100000
11111111101010010010000
11111111100111110100000
11111111101000001110000
11111111100111000000000
11111111101001000010000
11111111101011100000000
11111111101101001010000
11111111101110110010000
11111111101101100100000
11111111110000110110000
11111111110011101100000
11111111110111011000000
11111111111001000010000
11111111111001000010000
11111111111001110110000
11111111111010010000000
11111111111100010100000
11111111111101001000000
11111111111110010110000
11111111111101001000000
11111111111100101110000
11111111111011111000000
11111111111101001000000
11111111111110110000000
11111111111110010110000
11111111111101100010000
11111111111101001000000
11111111111100010100000
11111111111101001000000
11111111111110010110000
11111111111110110000000
11111111111101001000000
11111111111011111000000
11111111111011111000000
11111111111101001000000
11111111111101100010000
11111111111101100010000
11111111111100010100000
11111111111010101010000
11111111111001110110000
11111111111011000100000
11111111111100101110000
11111111111100101110000
11111111111100010100000
11111111111010101010000
11111111111010101010000
11111111111100101110000
11111111111101100010000
11111111111110010110000
11111111111100101110000
11111111111010010000000
11111111111010101010000
11111111111011000100000
11111111111100101110000
11111111111100010100000
11111111111011111000000
11111111111001110110000
11111111111001011100000
11111111111010010000000
11111111111011111000000
11111111111010101010000
11111111111001011100000
11111111110110111110000
11111111110110100100000
11111111110111011000000
11111111110110111110000
11111111110111110010000
11111111110101110000000
11111111110010111000000
11111111110010111000000
11111111110011010010000
11111111110011101100000
11111111110100000110000
11111111110010000100000
11111111110000000000000
11111111101101100100000
11111111101101100100000
11111111101111001100000
11111111101111001100000
11111111110001010000000
11111111110111110010000
00000000000010110110000
00000000010001001100000
00000000011111001000000
00000000101010001100000
00000000101111000110000
00000000101101111000000
00000000100100000010000
00000000010100011110000
00000000000101101110000
11111111111011000100000
11111111110110100100000
11111111110110111110000
11111111111011011110000
11111111111111100100000
00000000000011101010000
00000000000100100000000
00000000000100111010000
00000000000010011100000
00000000000001101000000
00000000000010000010000
00000000000010011100000
00000000000011010000000
00000000000010011100000
00000000000001001110000
00000000000000110100000
00000000000001101000000
00000000000010000010000
00000000000010110110000
00000000000001101000000
00000000000000110100000
00000000000000110100000
00000000000010000010000
00000000000010000010000
00000000000011010000000
00000000000011101010000
00000000000010000010000
00000000000010000010000
00000000000010011100000
00000000000011010000000
00000000000100000110000
00000000000010110110000
00000000000010011100000
00000000000010110110000
00000000000011010000000
00000000000100111010000
00000000000100111010000
00000000000100100000000
00000000000100000110000
00000000000100000110000
00000000000100100000000
00000000000101010100000
00000000000101101110000
00000000000101010100000
00000000000100100000000
00000000000100111010000
00000000000101101110000
00000000000111010110000
00000000000111110010000
00000000000100111010000
00000000000011101010000
00000000000010011100000
00000000000011101010000
00000000000100100000000
00000000000011010000000
00000000000001001110000
11111111111111001010000
11111111111101111100000
11111111111110110000000
00000000000000110100000
00000000000000000000000
11111111111110110000000
11111111111100101110000
11111111111011111000000
11111111111100101110000
11111111111101111100000
11111111111110010110000
11111111111111100100000
00000000000000011010000
00000000000001101000000
00000000000011101010000
00000000000011101010000
00000000000100111010000
00000000000010000010000
00000000000010011100000
00000000000010000010000
00000000000011010000000
00000000000011101010000
00000000000011010000000
00000000000011101010000
00000000000010110110000
00000000000010011100000
00000000000011010000000
00000000000100000110000
00000000000010110110000
00000000000001101000000
00000000000000110100000
00000000000001001110000
00000000000010011100000
00000000000010011100000
00000000000000011010000
11111111111111001010000
11111111111101111100000
11111111111011111000000
11111111111101001000000
11111111111101001000000
11111111111100101110000
11111111111011111000000
11111111111010101010000
11111111111001011100000
11111111111010010000000
11111111111011011110000
11111111111011111000000
11111111111001110110000
11111111111001110110000
11111111111001011100000
11111111111010101010000
11111111111101001000000
11111111111100101110000
11111111111100010100000
11111111111010010000000
11111111111010010000000
11111111111011000100000
11111111111100010100000
11111111111100010100000
11111111111100101110000
11111111111011111000000
11111111111010101010000
11111111111101111100000
11111111111110110000000
11111111111101111100000
11111111111100010100000
11111111111011111000000
11111111111101111100000
00000000000101101110000
00000000010010110100000
00000000011110101110000
00000000101010001100000
00000000110110011110000
00000001000010010110000
00000001001001010100000
00000001000111101010000
00000000111011011000000
00000000101010001100000
00000000011001110010000
00000000001111100100000
00000000001011111000000
00000000001001000000000
00000000000011010000000
11111111111100010100000
11111111110110111110000
11111111110011010010000
11111111110001101010000
11111111110001010000000
11111111110001101010000
11111111110000110110000
11111111110001101010000
11111111110100100000000
11111111110111110010000
11111111111001000010000
11111111111011000100000
11111111111101001000000
11111111111100010100000
11111111111011111000000
11111111111101100010000
11111111111101111100000
11111111111110110000000
11111111111110010110000
11111111111100010100000
11111111111011111000000
11111111111101001000000
11111111111110010110000
11111111111101111100000
11111111111110010110000
11111111111011000100000
11111111111011111000000
11111111111100010100000
11111111111101100010000
11111111111101100010000
11111111111101001000000
11111111111011011110000
11111111111011011110000
11111111111100010100000
11111111111101111100000
11111111111101111100000
11111111111101100010000
11111111111010101010000
11111111111011011110000
11111111111101001000000
11111111111101001000000
11111111111100010100000
11111111111011000100000
11111111111010101010000
11111111111001110110000
11111111111011111000000
11111111111011011110000
11111111111100010100000
11111111111011000100000
11111111111001000010000
11111111111000001100000
11111111111000101000000
11111111111001110110000
11111111111001011100000
11111111110111110010000
11111111110110001010000
11111111110101010110000
11111111110101110000000
11111111110110111110000
11111111110110001010000
11111111110100000110000
11111111110010011110000
11111111110001010000000
11111111110001101010000
11111111110010111000000
11111111110010000100000
11111111110000000000000
11111111101101100100000
11111111101011111010000
11111111101011111010000
11111111101011111010000
11111111101010010010000
11111111101001000010000
11111111100111110100000
11111111100110001100000
11111111100101110010000
11111111100101110010000
11111111100101110010000
11111111100100111100000
11111111100010111010000
11111111100010111010000
11111111100100001000000
11111111100100111100000
11111111100101110010000
11111111100101011000000
11111111100101110010000
11111111100110100110000
11111111101001011110000
11111111101011111010000
11111111101110110010000
11111111110000000000000
11111111110000110110000
11111111110010111000000
11111111110100000110000
11111111110110111110000
11111111110111110010000
11111111111000101000000
11111111111000001100000
11111111111000001100000
11111111110111110010000
11111111111010101010000
11111111111010101010000
11111111111001110110000
11111111111000001100000
11111111110111011000000
11111111111000101000000
11111111111001011100000
11111111111001110110000
11111111111001000010000
11111111110111011000000
11111111110110111110000
11111111111000101000000
11111111111001011100000
11111111111001000010000
11111111111000101000000
11111111111000001100000
11111111111000001100000
11111111111001000010000
11111111111010101010000
11111111111001011100000
11111111111010010000000
11111111111001000010000
11111111111000101000000
11111111111010010000000
11111111111010101010000
11111111111010010000000
11111111111001011100000
11111111110110111110000
11111111110100000110000
11111111110011101100000
11111111110011010010000
11111111110001101010000
11111111110001101010000
11111111110100111100000
11111111111100101110000
00000000001000001100000
00000000010101101100000
00000000011111111100000
00000000100110100000000
00000000100101010000000
00000000011100101010000
00000000001111111110000
00000000000100000110000
11111111111100101110000
11111111111001110110000
11111111111001000010000
11111111111011000100000
11111111111011000100000
11111111111001110110000
11111111111001000010000
11111111110110100100000
11111111110100100000000
11111111110011101100000
11111111110010000100000
11111111110010000100000
11111111110010000100000
11111111110000011010000
11111111101110011000000
11111111101101111110000
11111111101110110010000
11111111101111100110000
11111111110001010000000
11111111110010000100000
11111111110100000110000
11111111110101110000000
11111111110110111110000
11111111111001000010000
11111111111001011100000
11111111111001000010000
11111111111000001100000
11111111111000101000000
11111111111011000100000
11111111111100101110000
11111111111100101110000
11111111111101100010000
11111111111101001000000
11111111111110010110000
11111111111111100100000
00000000000001101000000
00000000000001001110000
00000000000000011010000
11111111111110110000000
11111111111111001010000
11111111111111001010000
00000000000000000000000
00000000000000110100000
11111111111111100100000
00000000000000000000000
11111111111111100100000
11111111111111001010000
00000000000001001110000
00000000000000011010000
00000000000000000000000
11111111111110010110000
11111111111101100010000
11111111111111100100000
00000000000000000000000
11111111111111100100000
11111111111111100100000
11111111111101100010000
11111111111101100010000
11111111111111001010000
11111111111111100100000
11111111111111100100000
11111111111101001000000
11111111111011111000000
11111111111100010100000
11111111111011111000000
11111111111100101110000
11111111111011000100000
11111111111011111000000
11111111111010010000000
11111111111000001100000
11111111111001000010000
11111111111001000010000
11111111111000101000000
11111111111000101000000
11111111110110001010000
11111111110101010110000
11111111110101010110000
11111111110100111100000
11111111110100000110000
11111111110011010010000
11111111110000110110000
11111111110001010000000
11111111110000011010000
11111111110010011110000
11111111110001101010000
11111111101111100110000
11111111101101100100000
11111111101101100100000
11111111101101111110000
11111111101101100100000
11111111101101001010000
11111111101011111010000
11111111101001111000000
11111111101001011110000
11111111101000101000000
11111111101000101000000
11111111100111000000000
11111111100101110010000
11111111100100100010000
11111111100100001000000
11111111100011101110000
11111111100100001000000
11111111100100001000000
11111111100011101110000
11111111100011010100000
11111111100100001000000
11111111100110001100000
11111111101000101000000
11111111101010010010000
11111111101011100000000
11111111101010101100000
11111111101101001010000
11111111101110110010000
11111111110001010000000
11111111110011010010000
11111111110100000110000
11111111110010111000000
11111111110011101100000
11111111110100111100000
11111111110101110000000
11111111110110001010000
11111111110101110000000
11111111110101010110000
11111111110110001010000
11111111110111011000000
11111111111000101000000
11111111110111110010000
11111111110111110010000
11111111110110100100000
11111111110110001010000
11111111110110111110000
11111111111000001100000
11111111110110111110000
11111111110111110010000
11111111110110100100000
11111111110110111110000
11111111110111110010000
11111111111000101000000
11111111110111011000000
11111111110110111110000
11111111110100111100000
11111111110100100000000
11111111110101010110000
11111111110100000110000
11111111110001101010000
11111111101110110010000
11111111101011111010000
11111111101110011000000
11111111110011010010000
11111111111011000100000
00000000000100100000000
00000000001011111000000
00000000010100000100000
00000000011010100110000
00000000011100010000000
00000000011000100100000
00000000001101100000000
00000000000001101000000
11111111111000101000000
11111111110101110000000
11111111110110100100000
11111111111010010000000
11111111111011000100000
11111111111010101010000
11111111111001011100000
11111111110111110010000
11111111111000001100000
11111111110111110010000
11111111110110100100000
11111111110101110000000
11111111110100000110000
11111111110100000110000
11111111110100000110000
11111111110101010110000
11111111110100100000000
11111111110001101010000
11111111110000000000000
11111111101110110010000
11111111101111001100000
11111111101110110010000
11111111110000000000000
11111111101110011000000
11111111101011000110000
11111111101011100000000
11111111101101001010000
11111111101101100100000
11111111101111001100000
11111111101101100100000
11111111101101100100000
11111111110000000000000
11111111110010000100000
11111111110100000110000
11111111110110111110000
11111111111000001100000
11111111111001000010000
11111111111011000100000
11111111111101001000000
11111111111110010110000
11111111111101111100000
11111111111101111100000
11111111111100101110000
11111111111101100010000
11111111111111001010000
00000000000000000000000
00000000000000011010000
11111111111111001010000
11111111111110110000000
11111111111110110000000
11111111111110110000000
11111111111111100100000
00000000000000000000000
11111111111111001010000
11111111111101100010000
11111111111100101110000
11111111111101100010000
11111111111110010110000
11111111111101111100000
11111111111100010100000
11111111111001110110000
11111111111010101010000
11111111111011000100000
11111111111011000100000
11111111111100010100000
11111111111001110110000
11111111111001011100000
11111111111001000010000
11111111111001000010000
11111111110111011000000
11111111110110111110000
11111111110110100100000
11111111110100100000000
11111111110011101100000
11111111110011101100000
11111111110100100000000
11111111110011101100000
11111111110011101100000
11111111110000011010000
11111111110001010000000
11111111110010011110000
11111111110011101100000
11111111110010111000000
11111111110010111000000
11111111110000110110000
11111111110000011010000
11111111110001010000000
11111111110010000100000
11111111110001101010000
11111111110000011010000
11111111101111001100000
11111111101111001100000
11111111101111100110000
11111111101101111110000
11111111101110110010000
11111111101100101110000
11111111101011111010000
11111111101011100000000
11111111101010101100000
11111111101011000110000
11111111101011100000000
11111111101001000010000
11111111100110100110000
11111111100111000000000
11111111101000101000000
11111111101011000110000
11111111101011111010000
11111111101011111010000
11111111101011100000000
11111111101011111010000
11111111101100010100000
11111111101101001010000
11111111101110011000000
11111111101101111110000
11111111101101001010000
11111111101101111110000
11111111101101111110000
11111111110000000000000
11111111110001010000000
11111111110001101010000
11111111110000110110000
11111111110010011110000
11111111110101010110000
11111111110101010110000
11111111110110001010000
11111111110101110000000
11111111110100111100000
11111111110101110000000
11111111110110001010000
11111111110111011000000
11111111111000101000000
11111111110111011000000
11111111110111011000000
11111111111001000010000
11111111111000001100000
11111111111010010000000
11111111111001011100000
11111111111001000010000
11111111111000001100000
11111111111000101000000
11111111111001011100000
11111111111010010000000
11111111111010010000000
11111111111001110110000
11111111110111110010000
11111111110110111110000
11111111110110100100000
11111111110100111100000
11111111110010111000000
11111111110000110110000
11111111110011010010000
11111111111010010000000
00000000000101010100000
00000000010010000000000
00000000011101011110000
00000000100100011100000
00000000100110000100000
00000000011101000100000
00000000010010000000000
00000000000100111010000
11111111111100010100000
11111111111001110110000
11111111111010010000000
11111111111101001000000
11111111111111001010000
11111111111111001010000
11111111111110110000000
11111111111101001000000
11111111111011011110000
11111111111011000100000
11111111111011000100000
11111111111100101110000
11111111111100010100000
11111111111011000100000
11111111111010101010000
11111111111010010000000
11111111111010101010000
11111111111011111000000
11111111111001110110000
11111111111001000010000
11111111110111110010000
11111111110110100100000
11111111110110001010000
11111111110110111110000
11111111110110001010000
11111111110110001010000
11111111110100111100000
11111111110011010010000
11111111110101010110000
11111111110101010110000
11111111110101110000000
11111111110100000110000
11111111110101010110000
11111111110110100100000
11111111111001000010000
11111111111010010000000
11111111111101100010000
11111111111101111100000
11111111111111001010000
00000000000000110100000
00000000000011101010000
00000000000101010100000
00000000000111110010000
00000000000111110010000
00000000001000001100000
00000000000110111100000
00000000001001011010000
00000000001010001110000
00000000001010101000000
00000000001010001110000
00000000001001000000000
00000000001000001100000
00000000001001011010000
00000000001011111000000
00000000001010101000000
00000000001010001110000
00000000001001110100000
00000000001001011010000
00000000001001011010000
00000000001010001110000
00000000001011000010000
00000000001001110100000
00000000001000100110000
00000000001000100110000
00000000001001000000000
00000000001010001110000
00000000001001011010000
00000000000111010110000
00000000000110001000000
00000000000110111100000
00000000000111010110000
00000000000111010110000
00000000000111010110000
00000000000111010110000
00000000000011010000000
00000000000001001110000
00000000000010011100000
00000000000010011100000
00000000000010110110000
00000000000001101000000
00000000000000110100000
00000000000000011010000
00000000000001001110000
00000000000010000010000
00000000000001101000000
11111111111110110000000
11111111111110010110000
11111111111101100010000
11111111111110110000000
00000000000000011010000
00000000000000000000000
11111111111111100100000
11111111111110010110000
11111111111110010110000
11111111111111001010000
11111111111111001010000
00000000000000000000000
11111111111110110000000
11111111111100010100000
11111111111101100010000
11111111111101111100000
11111111111110110000000
11111111111101001000000
11111111111101100010000
11111111111011011110000
11111111111011111000000
11111111111100101110000
11111111111101001000000
11111111111011111000000
11111111111010101010000
11111111111000101000000
11111111110111110010000
11111111110111011000000
11111111110111110010000
11111111110110111110000
11111111110100111100000
11111111110010111000000
11111111110011101100000
11111111110100100000000
11111111110100111100000
11111111110011010010000
11111111110010111000000
11111111110000000000000
11111111110001010000000
11111111110001101010000
11111111110100000110000
11111111110101010110000
11111111110110111110000
11111111110110111110000
11111111111001000010000
11111111111010101010000
11111111111110010110000
00000000000000011010000
00000000000000110100000
00000000000010000010000
00000000000010011100000
00000000000011101010000
00000000000101010100000
00000000000101010100000
00000000000101010100000
00000000000100000110000
00000000000100111010000
00000000000110001000000
00000000000110111100000
00000000000101010100000
00000000000100100000000
00000000000100100000000
00000000000100000110000
00000000000011101010000
00000000000101010100000
00000000000101010100000
00000000000101101110000
00000000000011101010000
00000000000011101010000
00000000000101101110000
00000000000110100010000
00000000000110111100000
00000000000110001000000
00000000000101101110000
00000000000110001000000
00000000000101101110000
00000000000110001000000
00000000000100111010000
00000000000010000010000
11111111111111100100000
11111111111101001000000
00000000000000000000000
00000000000111010110000
00000000001101111010000
00000000010101101100000
00000000011111100010000
00000000101000100010000
00000000110010011000000
00000000111001010110000
00000000110111101100000
00000000101100101000000
00000000011100101010000
00000000001111111110000
00000000001001110100000
00000000001000100110000
00000000001001000000000
00000000001010001110000
00000000001000001100000
00000000001000001100000
00000000001000001100000
00000000001001000000000
00000000000111110010000
00000000000110111100000
00000000000101010100000
00000000000100111010000
00000000000110001000000
00000000000110100010000
00000000000101010100000
00000000000100100000000
00000000000011101010000
00000000000010000010000
00000000000100000110000
00000000000100100000000
00000000000010110110000
00000000000010011100000
00000000000000000000000
11111111111110010110000
11111111111101111100000
00000000000000000000000
11111111111111100100000
11111111111101100010000
11111111111100101110000
11111111111010101010000
11111111111100101110000
11111111111101111100000
11111111111100101110000
11111111111100010100000
11111111111011011110000
11111111111011000100000
11111111111101111100000
00000000000001101000000
00000000000010110110000
00000000000100000110000
00000000000100000110000
00000000000100111010000
00000000001001011010000
00000000001100101100000
00000000001110101110000
00000000001111001000000
00000000001110101110000
00000000001110010100000
00000000001111111110000
00000000001111111110000
00000000001111100100000
00000000001111111110000
00000000001111001000000
00000000001111001000000
00000000010000011000000
00000000010001001100000
00000000010001100110000
00000000001111001000000
00000000001110010100000
00000000001111001000000
00000000001111111110000
00000000001111111110000
00000000010000110010000
00000000001111100100000
00000000001110010100000
00000000001101111010000
00000000001101100000000
00000000001110101110000
00000000001110101110000
00000000001101100000000
00000000001011011110000
00000000001011000010000
00000000001011111000000
00000000001100010010000
00000000001011011110000
00000000001010001110000
00000000001001000000000
00000000000111110010000
00000000000111110010000
00000000001000001100000
00000000000111010110000
00000000000110100010000
00000000000101010100000
00000000000100100000000
00000000000100100000000
00000000000100100000000
00000000000100000110000
00000000000011010000000
00000000000010011100000
00000000000001001110000
00000000000010011100000
00000000000010110110000
00000000000010110110000
00000000000010000010000
00000000000000011010000
00000000000000000000000
00000000000000000000000
00000000000000110100000
00000000000000000000000
11111111111110110000000
11111111111101100010000
11111111111111100100000
11111111111110010110000
11111111111111100100000
11111111111101001000000
11111111111011111000000
11111111111001011100000
11111111111010101010000
11111111111001110110000
11111111111011000100000
11111111111001110110000
11111111111000001100000
11111111110100111100000
11111111110011101100000
11111111110100111100000
11111111110011101100000
11111111110100000110000
11111111110010011110000
11111111110000011010000
11111111110000011010000
11111111110000000000000
11111111110001010000000
11111111110001010000000
11111111110010000100000
11111111110010111000000
11111111110100100000000
11111111110110111110000
11111111111001110110000
11111111111011111000000
11111111111011000100000
11111111111101100010000
00000000000000000000000
00000000000001101000000
00000000000011101010000
00000000000100000110000
00000000000010110110000
00000000000010011100000
00000000000010011100000
00000000000100111010000
00000000000101010100000
00000000000100111010000
00000000000100100000000
00000000000011101010000
00000000000011101010000
00000000000100111010000
00000000000101010100000
00000000000100000110000
00000000000011010000000
00000000000011010000000
00000000000010110110000
00000000000100000110000
00000000000100100000000
00000000000100000110000
00000000000011101010000
00000000000010000010000
00000000000010011100000
00000000000011101010000
00000000000011101010000
00000000000100100000000
00000000000100111010000
00000000000011101010000
00000000000010110110000
00000000000100111010000
00000000000101010100000
00000000000100100000000
00000000000011101010000
00000000000011101010000
00000000000011101010000
00000000000100000110000
00000000000101010100000
00000000000110001000000
00000000000100111010000
00000000000011101010000
00000000000100100000000
00000000000100111010000
00000000000110111100000
00000000000110100010000
00000000000101010100000
00000000000011010000000
00000000000011101010000
00000000000010110110000
00000000000010011100000
00000000000000011010000
00000000000000011010000
00000000000010110110000
00000000001001011010000
00000000010010011010000
00000000011011110110000
00000000100011101000000
00000000101010100110000
00000000101110101100000
00000000101011000000000
00000000100011001110000
00000000010100011110000
00000000000101010100000
11111111111100010100000
11111111110101110000000
11111111110110111110000
11111111111000001100000
11111111111010101010000
11111111111001000010000
11111111110111011000000
11111111110101010110000
11111111110100100000000
11111111110011010010000
11111111110101010110000
11111111110100111100000
11111111110100000110000
11111111110010011110000
11111111110101010110000
11111111110111011000000
11111111111010101010000
11111111111100010100000
11111111111101111100000
11111111111111100100000
00000000000001101000000
00000000000100111010000
00000000000111110010000
00000000000111010110000
00000000000110111100000
00000000000110111100000
00000000000111010110000
00000000000110111100000
00000000001001011010000
00000000001010001110000
00000000001000001100000
00000000000110111100000
00000000000111010110000
00000000001001110100000
00000000001010001110000
00000000001001011010000
00000000001001110100000
00000000001000100110000
00000000001000100110000
00000000001001011010000
00000000001011111000000
00000000001010001110000
00000000001001000000000
00000000001000001100000
00000000001001000000000
00000000001010001110000
00000000001010101000000
00000000001100010010000
00000000001011000010000
00000000001010101000000
00000000001010101000000
00000000001011000010000
00000000001100101100000
00000000001011011110000
00000000001010101000000
00000000001001110100000
00000000001001000000000
00000000001011111000000
00000000001100101100000
00000000001100101100000
00000000001011000010000
00000000001011000010000
00000000001010101000000
00000000001011111000000
00000000001100101100000
00000000001101100000000
00000000001011000010000
00000000001001110100000
00000000001001110100000
00000000001010001110000
00000000001011011110000
00000000001011011110000
00000000001010101000000
00000000001001011010000
00000000001000100110000
00000000001001000000000
00000000001001011010000
00000000000111110010000
00000000000110111100000
00000000000101101110000
00000000000100111010000
00000000000101010100000
00000000000101101110000
00000000000101101110000
00000000000011101010000
00000000000001001110000
00000000000010000010000
00000000000010000010000
00000000000010000010000
00000000000000000000000
11111111111111100100000
11111111111101100010000
11111111111101111100000
11111111111100101110000
11111111111101100010000
11111111111100010100000
11111111111010101010000
11111111111001011100000
11111111111001000010000
11111111111000001100000
11111111111001011100000
11111111111000001100000
11111111110111110010000
11111111110110001010000
11111111110100000110000
11111111110100000110000
11111111110101010110000
11111111110100100000000
11111111110010111000000
11111111110011010010000
11111111110010111000000
11111111110011010010000
11111111110100100000000
11111111110110001010000
11111111110111110010000
11111111111000001100000
11111111111011000100000
11111111111101001000000
11111111111101100010000
11111111111101100010000
11111111111100010100000
11111111111011111000000
11111111111100010100000
11111111111100010100000
11111111111100101110000
11111111111100010100000
11111111111011011110000
11111111111010101010000
11111111111011000100000
11111111111101100010000
11111111111101001000000
11111111111100010100000
11111111111010010000000
11111111111001011100000
11111111111010101010000
11111111111011011110000
11111111111101001000000
11111111111011111000000
11111111111011000100000
11111111111010010000000
11111111111010101010000
11111111111011000100000
11111111111100010100000
11111111111011111000000
11111111111011111000000
11111111111001110110000
11111111111011000100000
11111111111011011110000
11111111111100101110000
11111111111011000100000
11111111111001110110000
11111111110111110010000
11111111110110111110000
11111111110101010110000
11111111110011010010000
11111111110001010000000
11111111110000011010000
11111111110010000100000
11111111111001000010000
00000000000011010000000
00000000001111100100000
00000000011001110010000
00000000100001001010000
00000000100011101000000
00000000100001100100000
00000000010111110000000
00000000001100010010000
00000000000010011100000
11111111111110010110000
11111111111100101110000
00000000000000000000000
00000000000010000010000
00000000000100100000000
00000000000100100000000
00000000000010110110000
00000000000000011010000
11111111111111100100000
11111111111111100100000
00000000000000110100000
00000000000001001110000
00000000000000011010000
11111111111111100100000
00000000000000011010000
00000000000001001110000
00000000000010011100000
00000000000001101000000
00000000000001101000000
00000000000000110100000
00000000000001101000000
00000000000011101010000
00000000000101101110000
00000000000111010110000
00000000000111010110000
00000000001001000000000
00000000001010101000000
00000000001110101110000
00000000010000011000000
00000000010001001100000
00000000010000110010000
00000000010000011000000
00000000001111111110000
00000000001111001000000
00000000001111001000000
00000000001100010010000
00000000001010101000000
00000000001001011010000
00000000001000001100000
00000000000111110010000
00000000000110001000000
00000000000100111010000
00000000000010011100000
00000000000000000000000
11111111111111001010000
11111111111111100100000
11111111111111100100000
11111111111111001010000
11111111111101001000000
11111111111011111000000
